[Measurement conditions],,,,,
Sample identification,,,,,
Comment - 1,"Configuration=Reflection-transmission spinner, Owner=User-1, Creation date=12/4/2012 10:13:13 AM",,,,
Comment - 2,Goniometer=Theta/Theta; Minimum step size 2Theta:0.0001; Minimum step size Omega:0.0001,,,,
Comment - 3,Sample stage=Reflection-transmission spinner; Minimum step size Phi:0.1,,,,
Comment - 4,Diffractometer system=EMPYREAN,,,,
Comment - 5,"Measurement program=C:\PANalytical\Data Collector\Programs\PI Lorenzo Mangolini\BrandonWagner_Mg.xrdmp, Identifier={9EE36770-7A59-4EAA-85D0-90E43AFBFC91}",,,,
Anode material,Cu,,,,
K-Alpha1 wavelength,1.540598,,,,
K-Alpha2 wavelength,1.544426,,,,
Ratio K-Alpha2/K-Alpha1,0.5,,,,
Divergence slit,Fixed,0.76mm,,,
Monochromator used,NO,,,,
Generator voltage,45,,,,
Tube current,40,,,,
File date and time,4/5/2023 15:38,,,,
Unit cell,,,,,
h k l, 0 0 0,,,,
Scan axis,Gonio,,,,
Scan range,20,79.99226154,,,
Scan step size,0.0393908,,,,
No. of points,1523,,,,
Scan type,CONTINUOUS,,,,
Phi,338.7,,,,
Time per step,45.135,,,,
[Scan points],,,,,
Angle, TimePerStep, Intensity, ESD,,
20.01969542,45.135,512,22.6274,9263,0.055273669
20.05908627,45.135,489,22.1133,,0.052790673
20.09847712,45.135,479,21.8861,,0.051711109
20.13786796,45.135,477,21.8403,,0.051495196
20.17725881,45.135,481,21.9317,,0.051927021
20.21664966,45.135,540,23.2379,,0.058296448
20.25604051,45.135,509,22.561,,0.0549498
20.29543136,45.135,478,21.8632,,0.051603152
20.3348222,45.135,497,22.2935,,0.053654324
20.37421305,45.135,486,22.0454,,0.052466803
20.4136039,45.135,467,21.6102,,0.050415632
20.45299475,45.135,495,22.2486,,0.053438411
20.4923856,45.135,479,21.8861,,0.051711109
20.53177644,45.135,507,22.5167,,0.054733888
20.57116729,45.135,483,21.9773,,0.052142934
20.61055814,45.135,520,22.8035,,0.056137321
20.64994899,45.135,493,22.2036,,0.053222498
20.68933984,45.135,493,22.2036,,0.053222498
20.72873069,45.135,495,22.2486,,0.053438411
20.76812153,45.135,511,22.6053,,0.055165713
20.80751238,45.135,544,23.3238,,0.058728274
20.84690323,45.135,489,22.1133,,0.052790673
20.88629408,45.135,492,22.1811,,0.053114542
20.92568493,45.135,505,22.4722,,0.054517975
20.96507577,45.135,489,22.1133,,0.052790673
21.00446662,45.135,504,22.4499,,0.054410018
21.04385747,45.135,488,22.0907,,0.052682716
21.08324832,45.135,524,22.891,,0.056569146
21.12263917,45.135,504,22.4499,,0.054410018
21.16203001,45.135,467,21.6102,,0.050415632
21.20142086,45.135,519,22.7816,,0.056029364
21.24081171,45.135,491,22.1585,,0.053006585
21.28020256,45.135,472,21.7256,,0.050955414
21.31959341,45.135,492,22.1811,,0.053114542
21.35898425,45.135,458,21.4009,,0.049444025
21.3983751,45.135,502,22.4054,,0.054194106
21.43776595,45.135,483,21.9773,,0.052142934
21.4771568,45.135,486,22.0454,,0.052466803
21.51654765,45.135,470,21.6795,,0.050739501
21.55593849,45.135,469,21.6564,,0.050631545
21.59532934,45.135,475,21.7945,,0.051279283
21.63472019,45.135,481,21.9317,,0.051927021
21.67411104,45.135,491,22.1585,,0.053006585
21.71350189,45.135,490,22.1359,,0.052898629
21.75289273,45.135,436,20.8806,,0.047068984
21.79228358,45.135,409,20.2237,,0.044154162
21.83167443,45.135,461,21.4709,,0.049767894
21.87106528,45.135,484,22,,0.052250891
21.91045613,45.135,478,21.8632,,0.051603152
21.94984697,45.135,463,21.5174,,0.049983807
21.98923782,45.135,442,21.0238,,0.047716722
22.02862867,45.135,486,22.0454,,0.052466803
22.06801952,45.135,448,21.166,,0.048364461
22.10741037,45.135,468,21.6333,,0.050523588
22.14680121,45.135,511,22.6053,,0.055165713
22.18619206,45.135,428,20.6882,,0.046205333
22.22558291,45.135,469,21.6564,,0.050631545
22.26497376,45.135,454,21.3073,,0.049012199
22.30436461,45.135,467,21.6102,,0.050415632
22.34375545,45.135,519,22.7816,,0.056029364
22.3831463,45.135,468,21.6333,,0.050523588
22.42253715,45.135,467,21.6102,,0.050415632
22.461928,45.135,481,21.9317,,0.051927021
22.50131885,45.135,468,21.6333,,0.050523588
22.54070969,45.135,420,20.4939,,0.045341682
22.58010054,45.135,454,21.3073,,0.049012199
22.61949139,45.135,475,21.7945,,0.051279283
22.65888224,45.135,456,21.3542,,0.049228112
22.69827309,45.135,459,21.4243,,0.049551981
22.73766393,45.135,470,21.6795,,0.050739501
22.77705478,45.135,411,20.2731,,0.044370074
22.81644563,45.135,444,21.0713,,0.047932635
22.85583648,45.135,488,22.0907,,0.052682716
22.89522733,45.135,447,21.1424,,0.048256504
22.93461817,45.135,439,20.9523,,0.047392853
22.97400902,45.135,432,20.7846,,0.046637159
23.01339987,45.135,443,21.0476,,0.047824679
23.05279072,45.135,485,22.0227,,0.052358847
23.09218157,45.135,485,22.0227,,0.052358847
23.13157241,45.135,425,20.6155,,0.045881464
23.17096326,45.135,419,20.4695,,0.045233726
23.21035411,45.135,454,21.3073,,0.049012199
23.24974496,45.135,440,20.9762,,0.04750081
23.28913581,45.135,470,21.6795,,0.050739501
23.32852665,45.135,460,21.4476,,0.049659937
23.3679175,45.135,460,21.4476,,0.049659937
23.40730835,45.135,414,20.347,,0.044693944
23.4466992,45.135,453,21.2838,,0.048904243
23.48609005,45.135,441,21,,0.047608766
23.5254809,45.135,401,20.025,,0.043290511
23.56487174,45.135,421,20.5183,,0.045449638
23.60426259,45.135,484,22,,0.052250891
23.64365344,45.135,470,21.6795,,0.050739501
23.68304429,45.135,457,21.3776,,0.049336068
23.72243514,45.135,415,20.3715,,0.0448019
23.76182598,45.135,468,21.6333,,0.050523588
23.80121683,45.135,442,21.0238,,0.047716722
23.84060768,45.135,468,21.6333,,0.050523588
23.87999853,45.135,466,21.587,,0.050307676
23.91938938,45.135,424,20.5913,,0.045773508
23.95878022,45.135,420,20.4939,,0.045341682
23.99817107,45.135,451,21.2368,,0.04868833
24.03756192,45.135,438,20.9284,,0.047284897
24.07695277,45.135,448,21.166,,0.048364461
24.11634362,45.135,429,20.7123,,0.046313289
24.15573446,45.135,411,20.2731,,0.044370074
24.19512531,45.135,419,20.4695,,0.045233726
24.23451616,45.135,450,21.2132,,0.048580374
24.27390701,45.135,412,20.2978,,0.044478031
24.31329786,45.135,450,21.2132,,0.048580374
24.3526887,45.135,428,20.6882,,0.046205333
24.39207955,45.135,453,21.2838,,0.048904243
24.4314704,45.135,426,20.6398,,0.04598942
24.47086125,45.135,447,21.1424,,0.048256504
24.5102521,45.135,455,21.3307,,0.049120155
24.54964294,45.135,421,20.5183,,0.045449638
24.58903379,45.135,409,20.2237,,0.044154162
24.62842464,45.135,402,20.0499,,0.043398467
24.66781549,45.135,458,21.4009,,0.049444025
24.70720634,45.135,425,20.6155,,0.045881464
24.74659718,45.135,422,20.5426,,0.045557595
24.78598803,45.135,426,20.6398,,0.04598942
24.82537888,45.135,432,20.7846,,0.046637159
24.86476973,45.135,469,21.6564,,0.050631545
24.90416058,45.135,434,20.8327,,0.046853071
24.94355142,45.135,452,21.2603,,0.048796286
24.98294227,45.135,435,20.8567,,0.046961028
25.02233312,45.135,403,20.0749,,0.043506423
25.06172397,45.135,438,20.9284,,0.047284897
25.10111482,45.135,433,20.8087,,0.046745115
25.14050566,45.135,393,19.8242,,0.04242686
25.17989651,45.135,401,20.025,,0.043290511
25.21928736,45.135,449,21.1896,,0.048472417
25.25867821,45.135,420,20.4939,,0.045341682
25.29806906,45.135,409,20.2237,,0.044154162
25.3374599,45.135,390,19.7484,,0.04210299
25.37685075,45.135,413,20.3224,,0.044585987
25.4162416,45.135,409,20.2237,,0.044154162
25.45563245,45.135,412,20.2978,,0.044478031
25.4950233,45.135,450,21.2132,,0.048580374
25.53441414,45.135,425,20.6155,,0.045881464
25.57380499,45.135,422,20.5426,,0.045557595
25.61319584,45.135,410,20.2485,,0.044262118
25.65258669,45.135,424,20.5913,,0.045773508
25.69197754,45.135,372,19.2873,,0.040159775
25.73136838,45.135,407,20.1742,,0.043938249
25.77075923,45.135,391,19.7737,,0.042210947
25.81015008,45.135,357,18.8944,,0.03854043
25.84954093,45.135,450,21.2132,,0.048580374
25.88893178,45.135,433,20.8087,,0.046745115
25.92832262,45.135,410,20.2485,,0.044262118
25.96771347,45.135,431,20.7605,,0.046529202
26.00710432,45.135,364,19.0788,,0.039296124
26.04649517,45.135,424,20.5913,,0.045773508
26.08588602,45.135,403,20.0749,,0.043506423
26.12527686,45.135,412,20.2978,,0.044478031
26.16466771,45.135,387,19.6723,,0.041779121
26.20405856,45.135,431,20.7605,,0.046529202
26.24344941,45.135,406,20.1494,,0.043830293
26.28284026,45.135,411,20.2731,,0.044370074
26.32223111,45.135,407,20.1742,,0.043938249
26.36162195,45.135,377,19.4165,,0.040699557
26.4010128,45.135,388,19.6977,,0.041887078
26.44040365,45.135,369,19.2094,,0.039835906
26.4797945,45.135,350,18.7083,,0.037784735
26.51918535,45.135,364,19.0788,,0.039296124
26.55857619,45.135,371,19.2614,,0.040051819
26.59796704,45.135,407,20.1742,,0.043938249
26.63735789,45.135,422,20.5426,,0.045557595
26.67674874,45.135,435,20.8567,,0.046961028
26.71613959,45.135,435,20.8567,,0.046961028
26.75553043,45.135,408,20.199,,0.044046205
26.79492128,45.135,369,19.2094,,0.039835906
26.83431213,45.135,395,19.8746,,0.042642772
26.87370298,45.135,409,20.2237,,0.044154162
26.91309383,45.135,421,20.5183,,0.045449638
26.95248467,45.135,368,19.1833,,0.03972795
26.99187552,45.135,356,18.868,,0.038432473
27.03126637,45.135,419,20.4695,,0.045233726
27.07065722,45.135,391,19.7737,,0.042210947
27.11004807,45.135,399,19.975,,0.043074598
27.14943891,45.135,403,20.0749,,0.043506423
27.18882976,45.135,354,18.8149,,0.038216561
27.22822061,45.135,416,20.3961,,0.044909856
27.26761146,45.135,468,21.6333,,0.050523588
27.30700231,45.135,420,20.4939,,0.045341682
27.34639315,45.135,383,19.5704,,0.041347296
27.385784,45.135,402,20.0499,,0.043398467
27.42517485,45.135,427,20.664,,0.046097377
27.4645657,45.135,364,19.0788,,0.039296124
27.50395655,45.135,364,19.0788,,0.039296124
27.54334739,45.135,392,19.799,,0.042318903
27.58273824,45.135,452,21.2603,,0.048796286
27.62212909,45.135,417,20.4206,,0.045017813
27.66151994,45.135,398,19.9499,,0.042966641
27.70091079,45.135,405,20.1246,,0.043722336
27.74030163,45.135,390,19.7484,,0.04210299
27.77969248,45.135,444,21.0713,,0.047932635
27.81908333,45.135,447,21.1424,,0.048256504
27.85847418,45.135,409,20.2237,,0.044154162
27.89786503,45.135,444,21.0713,,0.047932635
27.93725587,45.135,395,19.8746,,0.042642772
27.97664672,45.135,425,20.6155,,0.045881464
28.01603757,45.135,451,21.2368,,0.04868833
28.05542842,45.135,403,20.0749,,0.043506423
28.09481927,45.135,437,20.9045,,0.047176941
28.13421011,45.135,438,20.9284,,0.047284897
28.17360096,45.135,406,20.1494,,0.043830293
28.21299181,45.135,404,20.0998,,0.04361438
28.25238266,45.135,393,19.8242,,0.04242686
28.29177351,45.135,422,20.5426,,0.045557595
28.33116435,45.135,377,19.4165,,0.040699557
28.3705552,45.135,441,21,,0.047608766
28.40994605,45.135,384,19.5959,,0.041455252
28.4493369,45.135,382,19.5448,,0.041239339
28.48872775,45.135,402,20.0499,,0.043398467
28.52811859,45.135,380,19.4936,,0.041023427
28.56750944,45.135,401,20.025,,0.043290511
28.60690029,45.135,411,20.2731,,0.044370074
28.64629114,45.135,387,19.6723,,0.041779121
28.68568199,45.135,381,19.5192,,0.041131383
28.72507283,45.135,402,20.0499,,0.043398467
28.76446368,45.135,362,19.0263,,0.039080212
28.80385453,45.135,366,19.1311,,0.039512037
28.84324538,45.135,346,18.6011,,0.037352909
28.88263623,45.135,358,18.9209,,0.038648386
28.92202708,45.135,413,20.3224,,0.044585987
28.96141792,45.135,362,19.0263,,0.039080212
29.00080877,45.135,367,19.1572,,0.039619994
29.04019962,45.135,373,19.3132,,0.040267732
29.07959047,45.135,383,19.5704,,0.041347296
29.11898132,45.135,369,19.2094,,0.039835906
29.15837216,45.135,351,18.735,,0.037892691
29.19776301,45.135,362,19.0263,,0.039080212
29.23715386,45.135,368,19.1833,,0.03972795
29.27654471,45.135,357,18.8944,,0.03854043
29.31593556,45.135,362,19.0263,,0.039080212
29.3553264,45.135,369,19.2094,,0.039835906
29.39471725,45.135,383,19.5704,,0.041347296
29.4341081,45.135,399,19.975,,0.043074598
29.47349895,45.135,383,19.5704,,0.041347296
29.5128898,45.135,382,19.5448,,0.041239339
29.55228064,45.135,393,19.8242,,0.04242686
29.59167149,45.135,371,19.2614,,0.040051819
29.63106234,45.135,356,18.868,,0.038432473
29.67045319,45.135,404,20.0998,,0.04361438
29.70984404,45.135,342,18.4932,,0.036921084
29.74923488,45.135,400,20,,0.043182554
29.78862573,45.135,340,18.4391,,0.036705171
29.82801658,45.135,320,17.8885,,0.034546043
29.86740743,45.135,384,19.5959,,0.041455252
29.90679828,45.135,379,19.4679,,0.04091547
29.94618912,45.135,405,20.1246,,0.043722336
29.98557997,45.135,349,18.6815,,0.037676779
30.02497082,45.135,352,18.7617,,0.038000648
30.06436167,45.135,364,19.0788,,0.039296124
30.10375252,45.135,353,18.7883,,0.038108604
30.14314336,45.135,390,19.7484,,0.04210299
30.18253421,45.135,352,18.7617,,0.038000648
30.22192506,45.135,350,18.7083,,0.037784735
30.26131591,45.135,385,19.6214,,0.041563208
30.30070676,45.135,391,19.7737,,0.042210947
30.3400976,45.135,336,18.3303,,0.036273346
30.37948845,45.135,375,19.3649,,0.040483645
30.4188793,45.135,350,18.7083,,0.037784735
30.45827015,45.135,371,19.2614,,0.040051819
30.497661,45.135,398,19.9499,,0.042966641
30.53705184,45.135,356,18.868,,0.038432473
30.57644269,45.135,363,19.0526,,0.039188168
30.61583354,45.135,381,19.5192,,0.041131383
30.65522439,45.135,373,19.3132,,0.040267732
30.69461524,45.135,377,19.4165,,0.040699557
30.73400608,45.135,367,19.1572,,0.039619994
30.77339693,45.135,386,19.6469,,0.041671165
30.81278778,45.135,344,18.5472,,0.037136997
30.85217863,45.135,360,18.9737,,0.038864299
30.89156948,45.135,385,19.6214,,0.041563208
30.93096032,45.135,368,19.1833,,0.03972795
30.97035117,45.135,359,18.9473,,0.038756342
31.00974202,45.135,359,18.9473,,0.038756342
31.04913287,45.135,376,19.3907,,0.040591601
31.08852372,45.135,361,19,,0.038972255
31.12791456,45.135,372,19.2873,,0.040159775
31.16730541,45.135,399,19.975,,0.043074598
31.20669626,45.135,389,19.7231,,0.041995034
31.24608711,45.135,388,19.6977,,0.041887078
31.28547796,45.135,375,19.3649,,0.040483645
31.3248688,45.135,381,19.5192,,0.041131383
31.36425965,45.135,390,19.7484,,0.04210299
31.4036505,45.135,342,18.4932,,0.036921084
31.44304135,45.135,382,19.5448,,0.041239339
31.4824322,45.135,393,19.8242,,0.04242686
31.52182304,45.135,386,19.6469,,0.041671165
31.56121389,45.135,363,19.0526,,0.039188168
31.60060474,45.135,338,18.3848,,0.036489258
31.63999559,45.135,341,18.4662,,0.036813127
31.67938644,45.135,377,19.4165,,0.040699557
31.71877729,45.135,402,20.0499,,0.043398467
31.75816813,45.135,381,19.5192,,0.041131383
31.79755898,45.135,411,20.2731,,0.044370074
31.83694983,45.135,369,19.2094,,0.039835906
31.87634068,45.135,421,20.5183,,0.045449638
31.91573153,45.135,387,19.6723,,0.041779121
31.95512237,45.135,438,20.9284,,0.047284897
31.99451322,45.135,474,21.7715,,0.051171327
32.03390407,45.135,515,22.6936,,0.055597539
32.07329492,45.135,646,25.4165,,0.069739825
32.11268577,45.135,835,28.8964,,0.090143582
32.15207661,45.135,1233,35.1141,,0.133110223
32.19146746,45.135,2033,45.0888,,0.219475332
32.23085831,45.135,2838,53.2729,,0.306380222
32.27024916,45.135,3060,55.3173,,0.33034654
32.30964001,45.135,2764,52.5738,,0.29839145
32.34903085,45.135,2008,44.8107,,0.216776422
32.3884217,45.135,1457,38.1707,,0.157292454
32.42781255,45.135,904,30.0666,,0.097592573
32.4672034,45.135,624,24.98,,0.067364785
32.50659425,45.135,522,22.8473,,0.056353233
32.54598509,45.135,484,22,,0.052250891
32.58537594,45.135,401,20.025,,0.043290511
32.62476679,45.135,457,21.3776,,0.049336068
32.66415764,45.135,441,21,,0.047608766
32.70354849,45.135,432,20.7846,,0.046637159
32.74293933,45.135,401,20.025,,0.043290511
32.78233018,45.135,439,20.9523,,0.047392853
32.82172103,45.135,392,19.799,,0.042318903
32.86111188,45.135,410,20.2485,,0.044262118
32.90050273,45.135,375,19.3649,,0.040483645
32.93989357,45.135,459,21.4243,,0.049551981
32.97928442,45.135,434,20.8327,,0.046853071
33.01867527,45.135,372,19.2873,,0.040159775
33.05806612,45.135,385,19.6214,,0.041563208
33.09745697,45.135,402,20.0499,,0.043398467
33.13684781,45.135,362,19.0263,,0.039080212
33.17623866,45.135,403,20.0749,,0.043506423
33.21562951,45.135,349,18.6815,,0.037676779
33.25502036,45.135,388,19.6977,,0.041887078
33.29441121,45.135,426,20.6398,,0.04598942
33.33380205,45.135,386,19.6469,,0.041671165
33.3731929,45.135,384,19.5959,,0.041455252
33.41258375,45.135,371,19.2614,,0.040051819
33.4519746,45.135,373,19.3132,,0.040267732
33.49136545,45.135,390,19.7484,,0.04210299
33.53075629,45.135,376,19.3907,,0.040591601
33.57014714,45.135,349,18.6815,,0.037676779
33.60953799,45.135,398,19.9499,,0.042966641
33.64892884,45.135,371,19.2614,,0.040051819
33.68831969,45.135,409,20.2237,,0.044154162
33.72771053,45.135,398,19.9499,,0.042966641
33.76710138,45.135,404,20.0998,,0.04361438
33.80649223,45.135,359,18.9473,,0.038756342
33.84588308,45.135,418,20.445,,0.045125769
33.88527393,45.135,400,20,,0.043182554
33.92466477,45.135,381,19.5192,,0.041131383
33.96405562,45.135,397,19.9249,,0.042858685
34.00344647,45.135,395,19.8746,,0.042642772
34.04283732,45.135,378,19.4422,,0.040807514
34.08222817,45.135,384,19.5959,,0.041455252
34.12161901,45.135,448,21.166,,0.048364461
34.16100986,45.135,472,21.7256,,0.050955414
34.20040071,45.135,516,22.7156,,0.055705495
34.23979156,45.135,509,22.561,,0.0549498
34.27918241,45.135,699,26.4386,,0.075461514
34.31857325,45.135,853,29.2062,,0.092086797
34.3579641,45.135,1244,35.2704,,0.134297744
34.39735495,45.135,1877,43.3244,,0.202634136
34.4367458,45.135,2632,51.303,,0.284141207
34.47613665,45.135,2944,54.2586,,0.317823599
34.5155275,45.135,2732,52.2685,,0.294936846
34.55491834,45.135,2421,49.2037,,0.26136241
34.59430919,45.135,1749,41.821,,0.188815718
34.63370004,45.135,1210,34.7851,,0.130627227
34.67309089,45.135,878,29.6311,,0.094785707
34.71248174,45.135,618,24.8596,,0.066717046
34.75187258,45.135,554,23.5372,,0.059807838
34.79126343,45.135,511,22.6053,,0.055165713
34.83065428,45.135,444,21.0713,,0.047932635
34.87004513,45.135,442,21.0238,,0.047716722
34.90943598,45.135,427,20.664,,0.046097377
34.94882682,45.135,407,20.1742,,0.043938249
34.98821767,45.135,394,19.8494,,0.042534816
35.02760852,45.135,383,19.5704,,0.041347296
35.06699937,45.135,383,19.5704,,0.041347296
35.10639022,45.135,382,19.5448,,0.041239339
35.14578106,45.135,414,20.347,,0.044693944
35.18517191,45.135,375,19.3649,,0.040483645
35.22456276,45.135,381,19.5192,,0.041131383
35.26395361,45.135,380,19.4936,,0.041023427
35.30334446,45.135,424,20.5913,,0.045773508
35.3427353,45.135,381,19.5192,,0.041131383
35.38212615,45.135,427,20.664,,0.046097377
35.421517,45.135,435,20.8567,,0.046961028
35.46090785,45.135,461,21.4709,,0.049767894
35.5002987,45.135,439,20.9523,,0.047392853
35.53968954,45.135,443,21.0476,,0.047824679
35.57908039,45.135,458,21.4009,,0.049444025
35.61847124,45.135,437,20.9045,,0.047176941
35.65786209,45.135,454,21.3073,,0.049012199
35.69725294,45.135,429,20.7123,,0.046313289
35.73664378,45.135,482,21.9545,,0.052034978
35.77603463,45.135,451,21.2368,,0.04868833
35.81542548,45.135,440,20.9762,,0.04750081
35.85481633,45.135,497,22.2935,,0.053654324
35.89420718,45.135,466,21.587,,0.050307676
35.93359802,45.135,454,21.3073,,0.049012199
35.97298887,45.135,457,21.3776,,0.049336068
36.01237972,45.135,475,21.7945,,0.051279283
36.05177057,45.135,465,21.5639,,0.050199719
36.09116142,45.135,461,21.4709,,0.049767894
36.13055226,45.135,451,21.2368,,0.04868833
36.16994311,45.135,505,22.4722,,0.054517975
36.20933396,45.135,569,23.8537,,0.061427183
36.24872481,45.135,579,24.0624,,0.062506747
36.28811566,45.135,610,24.6982,,0.065853395
36.3275065,45.135,638,25.2587,,0.068876174
36.36689735,45.135,772,27.7849,,0.08334233
36.4062882,45.135,842,29.0172,,0.090899277
36.44567905,45.135,1038,32.218,,0.112058728
36.4850699,45.135,1332,36.4966,,0.143797906
36.52446074,45.135,1860,43.1277,,0.200798877
36.56385159,45.135,2991,54.69,,0.322897549
36.60324244,45.135,4990,70.6399,,0.538702364
36.64263329,45.135,7515,86.6891,,0.811292238
36.68202414,45.135,9230,96.0729,,0.996437439
36.72141498,45.135,9263,96.2445,,1
36.76080583,45.135,8000,89.4427,,0.863651085
36.80019668,45.135,5795,76.1249,,0.625607255
36.83958753,45.135,3952,62.8649,,0.426643636
36.87897838,45.135,2407,49.0612,,0.25985102
36.91836922,45.135,1460,38.2099,,0.157616323
36.95776007,45.135,1027,32.0468,,0.110871208
36.99715092,45.135,789,28.0891,,0.085177588
37.03654177,45.135,678,26.0384,,0.073194429
37.07593262,45.135,659,25.671,,0.071143258
37.11532347,45.135,564,23.7487,,0.060887401
37.15471431,45.135,532,23.0651,,0.057432797
37.19410516,45.135,505,22.4722,,0.054517975
37.23349601,45.135,441,21,,0.047608766
37.27288686,45.135,465,21.5639,,0.050199719
37.31227771,45.135,489,22.1133,,0.052790673
37.35166855,45.135,416,20.3961,,0.044909856
37.3910594,45.135,383,19.5704,,0.041347296
37.43045025,45.135,431,20.7605,,0.046529202
37.4698411,45.135,411,20.2731,,0.044370074
37.50923195,45.135,380,19.4936,,0.041023427
37.54862279,45.135,378,19.4422,,0.040807514
37.58801364,45.135,405,20.1246,,0.043722336
37.62740449,45.135,372,19.2873,,0.040159775
37.66679534,45.135,394,19.8494,,0.042534816
37.70618619,45.135,398,19.9499,,0.042966641
37.74557703,45.135,407,20.1742,,0.043938249
37.78496788,45.135,396,19.8997,,0.042750729
37.82435873,45.135,404,20.0998,,0.04361438
37.86374958,45.135,341,18.4662,,0.036813127
37.90314043,45.135,367,19.1572,,0.039619994
37.94253127,45.135,351,18.735,,0.037892691
37.98192212,45.135,381,19.5192,,0.041131383
38.02131297,45.135,355,18.8414,,0.038324517
38.06070382,45.135,372,19.2873,,0.040159775
38.10009467,45.135,362,19.0263,,0.039080212
38.13948551,45.135,356,18.868,,0.038432473
38.17887636,45.135,355,18.8414,,0.038324517
38.21826721,45.135,342,18.4932,,0.036921084
38.25765806,45.135,358,18.9209,,0.038648386
38.29704891,45.135,323,17.9722,,0.034869913
38.33643975,45.135,358,18.9209,,0.038648386
38.3758306,45.135,390,19.7484,,0.04210299
38.41522145,45.135,384,19.5959,,0.041455252
38.4546123,45.135,375,19.3649,,0.040483645
38.49400315,45.135,347,18.6279,,0.037460866
38.53339399,45.135,373,19.3132,,0.040267732
38.57278484,45.135,332,18.2209,,0.03584152
38.61217569,45.135,355,18.8414,,0.038324517
38.65156654,45.135,356,18.868,,0.038432473
38.69095739,45.135,372,19.2873,,0.040159775
38.73034823,45.135,358,18.9209,,0.038648386
38.76973908,45.135,324,18,,0.034977869
38.80912993,45.135,334,18.2757,,0.036057433
38.84852078,45.135,363,19.0526,,0.039188168
38.88791163,45.135,311,17.6352,,0.033574436
38.92730247,45.135,338,18.3848,,0.036489258
38.96669332,45.135,350,18.7083,,0.037784735
39.00608417,45.135,345,18.5742,,0.037244953
39.04547502,45.135,371,19.2614,,0.040051819
39.08486587,45.135,360,18.9737,,0.038864299
39.12425671,45.135,368,19.1833,,0.03972795
39.16364756,45.135,334,18.2757,,0.036057433
39.20303841,45.135,368,19.1833,,0.03972795
39.24242926,45.135,372,19.2873,,0.040159775
39.28182011,45.135,321,17.9165,,0.034654
39.32121095,45.135,318,17.8326,,0.034330131
39.3606018,45.135,301,17.3494,,0.032494872
39.39999265,45.135,323,17.9722,,0.034869913
39.4393835,45.135,339,18.412,,0.036597215
39.47877435,45.135,360,18.9737,,0.038864299
39.51816519,45.135,327,18.0831,,0.035301738
39.55755604,45.135,360,18.9737,,0.038864299
39.59694689,45.135,328,18.1108,,0.035409694
39.63633774,45.135,359,18.9473,,0.038756342
39.67572859,45.135,322,17.9444,,0.034761956
39.71511943,45.135,345,18.5742,,0.037244953
39.75451028,45.135,345,18.5742,,0.037244953
39.79390113,45.135,332,18.2209,,0.03584152
39.83329198,45.135,350,18.7083,,0.037784735
39.87268283,45.135,344,18.5472,,0.037136997
39.91207368,45.135,339,18.412,,0.036597215
39.95146452,45.135,356,18.868,,0.038432473
39.99085537,45.135,348,18.6548,,0.037568822
40.03024622,45.135,367,19.1572,,0.039619994
40.06963707,45.135,316,17.7764,,0.034114218
40.10902792,45.135,342,18.4932,,0.036921084
40.14841876,45.135,298,17.2627,,0.032171003
40.18780961,45.135,354,18.8149,,0.038216561
40.22720046,45.135,341,18.4662,,0.036813127
40.26659131,45.135,340,18.4391,,0.036705171
40.30598216,45.135,334,18.2757,,0.036057433
40.345373,45.135,347,18.6279,,0.037460866
40.38476385,45.135,350,18.7083,,0.037784735
40.4241547,45.135,317,17.8045,,0.034222174
40.46354555,45.135,344,18.5472,,0.037136997
40.5029364,45.135,318,17.8326,,0.034330131
40.54232724,45.135,321,17.9165,,0.034654
40.58171809,45.135,344,18.5472,,0.037136997
40.62110894,45.135,339,18.412,,0.036597215
40.66049979,45.135,343,18.5203,,0.03702904
40.69989064,45.135,321,17.9165,,0.034654
40.73928148,45.135,328,18.1108,,0.035409694
40.77867233,45.135,330,18.1659,,0.035625607
40.81806318,45.135,349,18.6815,,0.037676779
40.85745403,45.135,336,18.3303,,0.036273346
40.89684488,45.135,320,17.8885,,0.034546043
40.93623572,45.135,340,18.4391,,0.036705171
40.97562657,45.135,312,17.6635,,0.033682392
41.01501742,45.135,316,17.7764,,0.034114218
41.05440827,45.135,312,17.6635,,0.033682392
41.09379912,45.135,343,18.5203,,0.03702904
41.13318996,45.135,336,18.3303,,0.036273346
41.17258081,45.135,333,18.2483,,0.035949476
41.21197166,45.135,335,18.303,,0.036165389
41.25136251,45.135,320,17.8885,,0.034546043
41.29075336,45.135,361,19,,0.038972255
41.3301442,45.135,342,18.4932,,0.036921084
41.36953505,45.135,326,18.0555,,0.035193782
41.4089259,45.135,308,17.5499,,0.033250567
41.44831675,45.135,300,17.3205,,0.032386916
41.4877076,45.135,315,17.7482,,0.034006261
41.52709844,45.135,368,19.1833,,0.03972795
41.56648929,45.135,318,17.8326,,0.034330131
41.60588014,45.135,309,17.5784,,0.033358523
41.64527099,45.135,340,18.4391,,0.036705171
41.68466184,45.135,322,17.9444,,0.034761956
41.72405268,45.135,306,17.4929,,0.033034654
41.76344353,45.135,324,18,,0.034977869
41.80283438,45.135,322,17.9444,,0.034761956
41.84222523,45.135,337,18.3576,,0.036381302
41.88161608,45.135,308,17.5499,,0.033250567
41.92100692,45.135,339,18.412,,0.036597215
41.96039777,45.135,335,18.303,,0.036165389
41.99978862,45.135,330,18.1659,,0.035625607
42.03917947,45.135,318,17.8326,,0.034330131
42.07857032,45.135,315,17.7482,,0.034006261
42.11796116,45.135,328,18.1108,,0.035409694
42.15735201,45.135,331,18.1934,,0.035733564
42.19674286,45.135,349,18.6815,,0.037676779
42.23613371,45.135,342,18.4932,,0.036921084
42.27552456,45.135,303,17.4069,,0.032710785
42.3149154,45.135,336,18.3303,,0.036273346
42.35430625,45.135,339,18.412,,0.036597215
42.3936971,45.135,312,17.6635,,0.033682392
42.43308795,45.135,314,17.72,,0.033898305
42.4724788,45.135,322,17.9444,,0.034761956
42.51186965,45.135,306,17.4929,,0.033034654
42.55126049,45.135,343,18.5203,,0.03702904
42.59065134,45.135,317,17.8045,,0.034222174
42.63004219,45.135,344,18.5472,,0.037136997
42.66943304,45.135,356,18.868,,0.038432473
42.70882389,45.135,353,18.7883,,0.038108604
42.74821473,45.135,309,17.5784,,0.033358523
42.78760558,45.135,302,17.3781,,0.032602828
42.82699643,45.135,327,18.0831,,0.035301738
42.86638728,45.135,329,18.1384,,0.035517651
42.90577813,45.135,330,18.1659,,0.035625607
42.94516897,45.135,341,18.4662,,0.036813127
42.98455982,45.135,320,17.8885,,0.034546043
43.02395067,45.135,338,18.3848,,0.036489258
43.06334152,45.135,309,17.5784,,0.033358523
43.10273237,45.135,329,18.1384,,0.035517651
43.14212321,45.135,343,18.5203,,0.03702904
43.18151406,45.135,341,18.4662,,0.036813127
43.22090491,45.135,309,17.5784,,0.033358523
43.26029576,45.135,316,17.7764,,0.034114218
43.29968661,45.135,301,17.3494,,0.032494872
43.33907745,45.135,339,18.412,,0.036597215
43.3784683,45.135,281,16.7631,,0.030335744
43.41785915,45.135,311,17.6352,,0.033574436
43.45725,45.135,319,17.8606,,0.034438087
43.49664085,45.135,320,17.8885,,0.034546043
43.53603169,45.135,311,17.6352,,0.033574436
43.57542254,45.135,308,17.5499,,0.033250567
43.61481339,45.135,335,18.303,,0.036165389
43.65420424,45.135,293,17.1172,,0.031631221
43.69359509,45.135,310,17.6068,,0.03346648
43.73298593,45.135,303,17.4069,,0.032710785
43.77237678,45.135,328,18.1108,,0.035409694
43.81176763,45.135,284,16.8523,,0.030659614
43.85115848,45.135,285,16.8819,,0.03076757
43.89054933,45.135,254,15.9374,,0.027420922
43.92994017,45.135,333,18.2483,,0.035949476
43.96933102,45.135,316,17.7764,,0.034114218
44.00872187,45.135,328,18.1108,,0.035409694
44.04811272,45.135,319,17.8606,,0.034438087
44.08750357,45.135,322,17.9444,,0.034761956
44.12689441,45.135,289,17,,0.031199395
44.16628526,45.135,343,18.5203,,0.03702904
44.20567611,45.135,315,17.7482,,0.034006261
44.24506696,45.135,333,18.2483,,0.035949476
44.28445781,45.135,315,17.7482,,0.034006261
44.32384865,45.135,309,17.5784,,0.033358523
44.3632395,45.135,295,17.1756,,0.031847134
44.40263035,45.135,320,17.8885,,0.034546043
44.4420212,45.135,308,17.5499,,0.033250567
44.48141205,45.135,317,17.8045,,0.034222174
44.52080289,45.135,300,17.3205,,0.032386916
44.56019374,45.135,313,17.6918,,0.033790349
44.59958459,45.135,297,17.2337,,0.032063047
44.63897544,45.135,313,17.6918,,0.033790349
44.67836629,45.135,309,17.5784,,0.033358523
44.71775713,45.135,320,17.8885,,0.034546043
44.75714798,45.135,286,16.9115,,0.030875526
44.79653883,45.135,314,17.72,,0.033898305
44.83592968,45.135,291,17.0587,,0.031415308
44.87532053,45.135,293,17.1172,,0.031631221
44.91471137,45.135,323,17.9722,,0.034869913
44.95410222,45.135,305,17.4642,,0.032926698
44.99349307,45.135,277,16.6433,,0.029903919
45.03288392,45.135,306,17.4929,,0.033034654
45.07227477,45.135,300,17.3205,,0.032386916
45.11166561,45.135,290,17.0294,,0.031307352
45.15105646,45.135,312,17.6635,,0.033682392
45.19044731,45.135,290,17.0294,,0.031307352
45.22983816,45.135,295,17.1756,,0.031847134
45.26922901,45.135,313,17.6918,,0.033790349
45.30861986,45.135,303,17.4069,,0.032710785
45.3480107,45.135,335,18.303,,0.036165389
45.38740155,45.135,300,17.3205,,0.032386916
45.4267924,45.135,299,17.2916,,0.032278959
45.46618325,45.135,326,18.0555,,0.035193782
45.5055741,45.135,281,16.7631,,0.030335744
45.54496494,45.135,300,17.3205,,0.032386916
45.58435579,45.135,251,15.843,,0.027097053
45.62374664,45.135,289,17,,0.031199395
45.66313749,45.135,270,16.4317,,0.029148224
45.70252834,45.135,312,17.6635,,0.033682392
45.74191918,45.135,276,16.6132,,0.029795962
45.78131003,45.135,269,16.4012,,0.029040268
45.82070088,45.135,278,16.6733,,0.030011875
45.86009173,45.135,286,16.9115,,0.030875526
45.89948258,45.135,306,17.4929,,0.033034654
45.93887342,45.135,286,16.9115,,0.030875526
45.97826427,45.135,271,16.4621,,0.029256181
46.01765512,45.135,331,18.1934,,0.035733564
46.05704597,45.135,301,17.3494,,0.032494872
46.09643682,45.135,319,17.8606,,0.034438087
46.13582766,45.135,337,18.3576,,0.036381302
46.17521851,45.135,330,18.1659,,0.035625607
46.21460936,45.135,311,17.6352,,0.033574436
46.25400021,45.135,298,17.2627,,0.032171003
46.29339106,45.135,297,17.2337,,0.032063047
46.3327819,45.135,310,17.6068,,0.03346648
46.37217275,45.135,294,17.1464,,0.031739177
46.4115636,45.135,315,17.7482,,0.034006261
46.45095445,45.135,291,17.0587,,0.031415308
46.4903453,45.135,334,18.2757,,0.036057433
46.52973614,45.135,282,16.7929,,0.030443701
46.56912699,45.135,317,17.8045,,0.034222174
46.60851784,45.135,295,17.1756,,0.031847134
46.64790869,45.135,362,19.0263,,0.039080212
46.68729954,45.135,271,16.4621,,0.029256181
46.72669038,45.135,299,17.2916,,0.032278959
46.76608123,45.135,292,17.088,,0.031523265
46.80547208,45.135,301,17.3494,,0.032494872
46.84486293,45.135,301,17.3494,,0.032494872
46.88425378,45.135,316,17.7764,,0.034114218
46.92364462,45.135,302,17.3781,,0.032602828
46.96303547,45.135,296,17.2047,,0.03195509
47.00242632,45.135,284,16.8523,,0.030659614
47.04181717,45.135,306,17.4929,,0.033034654
47.08120802,45.135,306,17.4929,,0.033034654
47.12059886,45.135,351,18.735,,0.037892691
47.15998971,45.135,320,17.8885,,0.034546043
47.19938056,45.135,320,17.8885,,0.034546043
47.23877141,45.135,297,17.2337,,0.032063047
47.27816226,45.135,298,17.2627,,0.032171003
47.3175531,45.135,296,17.2047,,0.03195509
47.35694395,45.135,300,17.3205,,0.032386916
47.3963348,45.135,321,17.9165,,0.034654
47.43572565,45.135,295,17.1756,,0.031847134
47.4751165,45.135,345,18.5742,,0.037244953
47.51450734,45.135,327,18.0831,,0.035301738
47.55389819,45.135,339,18.412,,0.036597215
47.59328904,45.135,405,20.1246,,0.043722336
47.63267989,45.135,402,20.0499,,0.043398467
47.67207074,45.135,387,19.6723,,0.041779121
47.71146158,45.135,445,21.095,,0.048040592
47.75085243,45.135,548,23.4094,,0.059160099
47.79024328,45.135,702,26.4953,,0.075785383
47.82963413,45.135,963,31.0322,,0.103961999
47.86902498,45.135,1143,33.8083,,0.123394149
47.90841582,45.135,1209,34.7707,,0.13051927
47.94780667,45.135,1146,33.8526,,0.123718018
47.98719752,45.135,1024,32,,0.110547339
48.02658837,45.135,840,28.9828,,0.090683364
48.06597922,45.135,652,25.5343,,0.070387563
48.10537007,45.135,534,23.1084,,0.05764871
48.14476091,45.135,428,20.6882,,0.046205333
48.18415176,45.135,370,19.2354,,0.039943863
48.22354261,45.135,368,19.1833,,0.03972795
48.26293346,45.135,331,18.1934,,0.035733564
48.30232431,45.135,319,17.8606,,0.034438087
48.34171515,45.135,310,17.6068,,0.03346648
48.381106,45.135,325,18.0278,,0.035085825
48.42049685,45.135,346,18.6011,,0.037352909
48.4598877,45.135,317,17.8045,,0.034222174
48.49927855,45.135,309,17.5784,,0.033358523
48.53866939,45.135,321,17.9165,,0.034654
48.57806024,45.135,294,17.1464,,0.031739177
48.61745109,45.135,290,17.0294,,0.031307352
48.65684194,45.135,304,17.4356,,0.032818741
48.69623279,45.135,302,17.3781,,0.032602828
48.73562363,45.135,267,16.3401,,0.028824355
48.77501448,45.135,309,17.5784,,0.033358523
48.81440533,45.135,284,16.8523,,0.030659614
48.85379618,45.135,250,15.8114,,0.026989096
48.89318703,45.135,300,17.3205,,0.032386916
48.93257787,45.135,290,17.0294,,0.031307352
48.97196872,45.135,318,17.8326,,0.034330131
49.01135957,45.135,293,17.1172,,0.031631221
49.05075042,45.135,273,16.5227,,0.029472093
49.09014127,45.135,290,17.0294,,0.031307352
49.12953211,45.135,278,16.6733,,0.030011875
49.16892296,45.135,288,16.9706,,0.031091439
49.20831381,45.135,311,17.6352,,0.033574436
49.24770466,45.135,292,17.088,,0.031523265
49.28709551,45.135,309,17.5784,,0.033358523
49.32648635,45.135,269,16.4012,,0.029040268
49.3658772,45.135,273,16.5227,,0.029472093
49.40526805,45.135,266,16.3095,,0.028716399
49.4446589,45.135,292,17.088,,0.031523265
49.48404975,45.135,307,17.5214,,0.03314261
49.52344059,45.135,288,16.9706,,0.031091439
49.56283144,45.135,275,16.5831,,0.029688006
49.60222229,45.135,299,17.2916,,0.032278959
49.64161314,45.135,272,16.4924,,0.029364137
49.68100399,45.135,284,16.8523,,0.030659614
49.72039483,45.135,258,16.0624,,0.027852747
49.75978568,45.135,256,16,,0.027636835
49.79917653,45.135,276,16.6132,,0.029795962
49.83856738,45.135,262,16.1864,,0.028284573
49.87795823,45.135,294,17.1464,,0.031739177
49.91734907,45.135,314,17.72,,0.033898305
49.95673992,45.135,320,17.8885,,0.034546043
49.99613077,45.135,252,15.8745,,0.027205009
50.03552162,45.135,303,17.4069,,0.032710785
50.07491247,45.135,260,16.1245,,0.02806866
50.11430331,45.135,280,16.7332,,0.030227788
50.15369416,45.135,255,15.9687,,0.027528878
50.19308501,45.135,284,16.8523,,0.030659614
50.23247586,45.135,272,16.4924,,0.029364137
50.27186671,45.135,283,16.8226,,0.030551657
50.31125755,45.135,274,16.5529,,0.02958005
50.3506484,45.135,252,15.8745,,0.027205009
50.39003925,45.135,261,16.1555,,0.028176617
50.4294301,45.135,237,15.3948,,0.025585663
50.46882095,45.135,267,16.3401,,0.028824355
50.50821179,45.135,294,17.1464,,0.031739177
50.54760264,45.135,297,17.2337,,0.032063047
50.58699349,45.135,307,17.5214,,0.03314261
50.62638434,45.135,263,16.2173,,0.028392529
50.66577519,45.135,261,16.1555,,0.028176617
50.70516604,45.135,281,16.7631,,0.030335744
50.74455688,45.135,262,16.1864,,0.028284573
50.78394773,45.135,258,16.0624,,0.027852747
50.82333858,45.135,289,17,,0.031199395
50.86272943,45.135,247,15.7162,,0.026665227
50.90212028,45.135,267,16.3401,,0.028824355
50.94151112,45.135,262,16.1864,,0.028284573
50.98090197,45.135,319,17.8606,,0.034438087
51.02029282,45.135,274,16.5529,,0.02958005
51.05968367,45.135,270,16.4317,,0.029148224
51.09907452,45.135,255,15.9687,,0.027528878
51.13846536,45.135,303,17.4069,,0.032710785
51.17785621,45.135,271,16.4621,,0.029256181
51.21724706,45.135,268,16.3707,,0.028932311
51.25663791,45.135,272,16.4924,,0.029364137
51.29602876,45.135,263,16.2173,,0.028392529
51.3354196,45.135,268,16.3707,,0.028932311
51.37481045,45.135,269,16.4012,,0.029040268
51.4142013,45.135,260,16.1245,,0.02806866
51.45359215,45.135,279,16.7033,,0.030119832
51.492983,45.135,260,16.1245,,0.02806866
51.53237384,45.135,263,16.2173,,0.028392529
51.57176469,45.135,289,17,,0.031199395
51.61115554,45.135,293,17.1172,,0.031631221
51.65054639,45.135,282,16.7929,,0.030443701
51.68993724,45.135,260,16.1245,,0.02806866
51.72932808,45.135,258,16.0624,,0.027852747
51.76871893,45.135,263,16.2173,,0.028392529
51.80810978,45.135,275,16.5831,,0.029688006
51.84750063,45.135,267,16.3401,,0.028824355
51.88689148,45.135,271,16.4621,,0.029256181
51.92628232,45.135,258,16.0624,,0.027852747
51.96567317,45.135,252,15.8745,,0.027205009
52.00506402,45.135,291,17.0587,,0.031415308
52.04445487,45.135,277,16.6433,,0.029903919
52.08384572,45.135,290,17.0294,,0.031307352
52.12323656,45.135,282,16.7929,,0.030443701
52.16262741,45.135,250,15.8114,,0.026989096
52.20201826,45.135,259,16.0935,,0.027960704
52.24140911,45.135,281,16.7631,,0.030335744
52.28079996,45.135,289,17,,0.031199395
52.3201908,45.135,255,15.9687,,0.027528878
52.35958165,45.135,242,15.5563,,0.026125445
52.3989725,45.135,277,16.6433,,0.029903919
52.43836335,45.135,278,16.6733,,0.030011875
52.4777542,45.135,285,16.8819,,0.03076757
52.51714504,45.135,298,17.2627,,0.032171003
52.55653589,45.135,262,16.1864,,0.028284573
52.59592674,45.135,247,15.7162,,0.026665227
52.63531759,45.135,300,17.3205,,0.032386916
52.67470844,45.135,248,15.748,,0.026773184
52.71409928,45.135,259,16.0935,,0.027960704
52.75349013,45.135,268,16.3707,,0.028932311
52.79288098,45.135,253,15.906,,0.027312966
52.83227183,45.135,251,15.843,,0.027097053
52.87166268,45.135,283,16.8226,,0.030551657
52.91105352,45.135,248,15.748,,0.026773184
52.95044437,45.135,263,16.2173,,0.028392529
52.98983522,45.135,239,15.4596,,0.025801576
53.02922607,45.135,288,16.9706,,0.031091439
53.06861692,45.135,274,16.5529,,0.02958005
53.10800776,45.135,245,15.6525,,0.026449314
53.14739861,45.135,268,16.3707,,0.028932311
53.18678946,45.135,265,16.2788,,0.028608442
53.22618031,45.135,264,16.2481,,0.028500486
53.26557116,45.135,275,16.5831,,0.029688006
53.304962,45.135,249,15.7797,,0.02688114
53.34435285,45.135,249,15.7797,,0.02688114
53.3837437,45.135,271,16.4621,,0.029256181
53.42313455,45.135,241,15.5242,,0.026017489
53.4625254,45.135,256,16,,0.027636835
53.50191625,45.135,256,16,,0.027636835
53.54130709,45.135,236,15.3623,,0.025477707
53.58069794,45.135,289,17,,0.031199395
53.62008879,45.135,216,14.6969,,0.023318579
53.65947964,45.135,216,14.6969,,0.023318579
53.69887049,45.135,280,16.7332,,0.030227788
53.73826133,45.135,281,16.7631,,0.030335744
53.77765218,45.135,296,17.2047,,0.03195509
53.81704303,45.135,243,15.5885,,0.026233402
53.85643388,45.135,261,16.1555,,0.028176617
53.89582473,45.135,231,15.1987,,0.024937925
53.93521557,45.135,246,15.6844,,0.026557271
53.97460642,45.135,243,15.5885,,0.026233402
54.01399727,45.135,241,15.5242,,0.026017489
54.05338812,45.135,265,16.2788,,0.028608442
54.09277897,45.135,240,15.4919,,0.025909533
54.13216981,45.135,280,16.7332,,0.030227788
54.17156066,45.135,272,16.4924,,0.029364137
54.21095151,45.135,264,16.2481,,0.028500486
54.25034236,45.135,271,16.4621,,0.029256181
54.28973321,45.135,264,16.2481,,0.028500486
54.32912405,45.135,272,16.4924,,0.029364137
54.3685149,45.135,236,15.3623,,0.025477707
54.40790575,45.135,275,16.5831,,0.029688006
54.4472966,45.135,254,15.9374,,0.027420922
54.48668745,45.135,223,14.9332,,0.024074274
54.52607829,45.135,257,16.0312,,0.027744791
54.56546914,45.135,231,15.1987,,0.024937925
54.60485999,45.135,255,15.9687,,0.027528878
54.64425084,45.135,287,16.9411,,0.030983483
54.68364169,45.135,263,16.2173,,0.028392529
54.72303253,45.135,280,16.7332,,0.030227788
54.76242338,45.135,248,15.748,,0.026773184
54.80181423,45.135,249,15.7797,,0.02688114
54.84120508,45.135,292,17.088,,0.031523265
54.88059593,45.135,269,16.4012,,0.029040268
54.91998677,45.135,263,16.2173,,0.028392529
54.95937762,45.135,270,16.4317,,0.029148224
54.99876847,45.135,281,16.7631,,0.030335744
55.03815932,45.135,274,16.5529,,0.02958005
55.07755017,45.135,239,15.4596,,0.025801576
55.11694101,45.135,263,16.2173,,0.028392529
55.15633186,45.135,245,15.6525,,0.026449314
55.19572271,45.135,249,15.7797,,0.02688114
55.23511356,45.135,264,16.2481,,0.028500486
55.27450441,45.135,254,15.9374,,0.027420922
55.31389525,45.135,243,15.5885,,0.026233402
55.3532861,45.135,250,15.8114,,0.026989096
55.39267695,45.135,248,15.748,,0.026773184
55.4320678,45.135,244,15.6205,,0.026341358
55.47145865,45.135,212,14.5602,,0.022886754
55.51084949,45.135,241,15.5242,,0.026017489
55.55024034,45.135,244,15.6205,,0.026341358
55.58963119,45.135,247,15.7162,,0.026665227
55.62902204,45.135,215,14.6629,,0.023210623
55.66841289,45.135,241,15.5242,,0.026017489
55.70780373,45.135,270,16.4317,,0.029148224
55.74719458,45.135,236,15.3623,,0.025477707
55.78658543,45.135,256,16,,0.027636835
55.82597628,45.135,264,16.2481,,0.028500486
55.86536713,45.135,263,16.2173,,0.028392529
55.90475797,45.135,270,16.4317,,0.029148224
55.94414882,45.135,247,15.7162,,0.026665227
55.98353967,45.135,228,15.0997,,0.024614056
56.02293052,45.135,253,15.906,,0.027312966
56.06232137,45.135,264,16.2481,,0.028500486
56.10171221,45.135,266,16.3095,,0.028716399
56.14110306,45.135,225,15,,0.024290187
56.18049391,45.135,243,15.5885,,0.026233402
56.21988476,45.135,230,15.1658,,0.024829969
56.25927561,45.135,251,15.843,,0.027097053
56.29866646,45.135,229,15.1327,,0.024722012
56.3380573,45.135,266,16.3095,,0.028716399
56.37744815,45.135,241,15.5242,,0.026017489
56.416839,45.135,268,16.3707,,0.028932311
56.45622985,45.135,252,15.8745,,0.027205009
56.4956207,45.135,258,16.0624,,0.027852747
56.53501154,45.135,226,15.0333,,0.024398143
56.57440239,45.135,258,16.0624,,0.027852747
56.61379324,45.135,207,14.3875,,0.022346972
56.65318409,45.135,235,15.3297,,0.025369751
56.69257494,45.135,234,15.2971,,0.025261794
56.73196578,45.135,249,15.7797,,0.02688114
56.77135663,45.135,230,15.1658,,0.024829969
56.81074748,45.135,255,15.9687,,0.027528878
56.85013833,45.135,244,15.6205,,0.026341358
56.88952918,45.135,223,14.9332,,0.024074274
56.92892002,45.135,232,15.2315,,0.025045881
56.96831087,45.135,256,16,,0.027636835
57.00770172,45.135,246,15.6844,,0.026557271
57.04709257,45.135,294,17.1464,,0.031739177
57.08648342,45.135,267,16.3401,,0.028824355
57.12587426,45.135,296,17.2047,,0.03195509
57.16526511,45.135,335,18.303,,0.036165389
57.20465596,45.135,325,18.0278,,0.035085825
57.24404681,45.135,318,17.8326,,0.034330131
57.28343766,45.135,404,20.0998,,0.04361438
57.3228285,45.135,437,20.9045,,0.047176941
57.36221935,45.135,715,26.7395,,0.077188816
57.4016102,45.135,1010,31.7805,,0.109035949
57.44100105,45.135,1150,33.9116,,0.124149843
57.4803919,45.135,1047,32.3574,,0.113030336
57.51978274,45.135,864,29.3939,,0.093274317
57.55917359,45.135,819,28.6182,,0.08841628
57.59856444,45.135,738,27.1662,,0.079671813
57.63795529,45.135,707,26.5895,,0.076325165
57.67734614,45.135,524,22.891,,0.056569146
57.71673698,45.135,410,20.2485,,0.044262118
57.75612783,45.135,389,19.7231,,0.041995034
57.79551868,45.135,304,17.4356,,0.032818741
57.83490953,45.135,271,16.4621,,0.029256181
57.87430038,45.135,287,16.9411,,0.030983483
57.91369122,45.135,283,16.8226,,0.030551657
57.95308207,45.135,247,15.7162,,0.026665227
57.99247292,45.135,220,14.8324,,0.023750405
58.03186377,45.135,253,15.906,,0.027312966
58.07125462,45.135,248,15.748,,0.026773184
58.11064546,45.135,209,14.4568,,0.022562885
58.15003631,45.135,210,14.4914,,0.022670841
58.18942716,45.135,265,16.2788,,0.028608442
58.22881801,45.135,243,15.5885,,0.026233402
58.26820886,45.135,241,15.5242,,0.026017489
58.3075997,45.135,268,16.3707,,0.028932311
58.34699055,45.135,255,15.9687,,0.027528878
58.3863814,45.135,257,16.0312,,0.027744791
58.42577225,45.135,259,16.0935,,0.027960704
58.4651631,45.135,227,15.0665,,0.0245061
58.50455394,45.135,217,14.7309,,0.023426536
58.54394479,45.135,234,15.2971,,0.025261794
58.58333564,45.135,258,16.0624,,0.027852747
58.62272649,45.135,219,14.7986,,0.023642448
58.66211734,45.135,219,14.7986,,0.023642448
58.70150818,45.135,228,15.0997,,0.024614056
58.74089903,45.135,229,15.1327,,0.024722012
58.78028988,45.135,220,14.8324,,0.023750405
58.81968073,45.135,201,14.1774,,0.021699234
58.85907158,45.135,234,15.2971,,0.025261794
58.89846243,45.135,249,15.7797,,0.02688114
58.93785327,45.135,229,15.1327,,0.024722012
58.97724412,45.135,230,15.1658,,0.024829969
59.01663497,45.135,231,15.1987,,0.024937925
59.05602582,45.135,244,15.6205,,0.026341358
59.09541667,45.135,234,15.2971,,0.025261794
59.13480751,45.135,218,14.7648,,0.023534492
59.17419836,45.135,228,15.0997,,0.024614056
59.21358921,45.135,219,14.7986,,0.023642448
59.25298006,45.135,217,14.7309,,0.023426536
59.29237091,45.135,216,14.6969,,0.023318579
59.33176175,45.135,253,15.906,,0.027312966
59.3711526,45.135,212,14.5602,,0.022886754
59.41054345,45.135,239,15.4596,,0.025801576
59.4499343,45.135,246,15.6844,,0.026557271
59.48932515,45.135,230,15.1658,,0.024829969
59.52871599,45.135,237,15.3948,,0.025585663
59.56810684,45.135,190,13.784,,0.020511713
59.60749769,45.135,227,15.0665,,0.0245061
59.64688854,45.135,253,15.906,,0.027312966
59.68627939,45.135,247,15.7162,,0.026665227
59.72567023,45.135,216,14.6969,,0.023318579
59.76506108,45.135,226,15.0333,,0.024398143
59.80445193,45.135,223,14.9332,,0.024074274
59.84384278,45.135,195,13.9642,,0.021051495
59.88323363,45.135,226,15.0333,,0.024398143
59.92262447,45.135,228,15.0997,,0.024614056
59.96201532,45.135,251,15.843,,0.027097053
60.00140617,45.135,243,15.5885,,0.026233402
60.04079702,45.135,227,15.0665,,0.0245061
60.08018787,45.135,215,14.6629,,0.023210623
60.11957871,45.135,236,15.3623,,0.025477707
60.15896956,45.135,220,14.8324,,0.023750405
60.19836041,45.135,188,13.7113,,0.0202958
60.23775126,45.135,242,15.5563,,0.026125445
60.27714211,45.135,256,16,,0.027636835
60.31653295,45.135,230,15.1658,,0.024829969
60.3559238,45.135,256,16,,0.027636835
60.39531465,45.135,221,14.8661,,0.023858361
60.4347055,45.135,192,13.8564,,0.020727626
60.47409635,45.135,226,15.0333,,0.024398143
60.51348719,45.135,219,14.7986,,0.023642448
60.55287804,45.135,235,15.3297,,0.025369751
60.59226889,45.135,207,14.3875,,0.022346972
60.63165974,45.135,220,14.8324,,0.023750405
60.67105059,45.135,243,15.5885,,0.026233402
60.71044143,45.135,203,14.2478,,0.021915146
60.74983228,45.135,254,15.9374,,0.027420922
60.78922313,45.135,242,15.5563,,0.026125445
60.82861398,45.135,245,15.6525,,0.026449314
60.86800483,45.135,213,14.5945,,0.02299471
60.90739567,45.135,230,15.1658,,0.024829969
60.94678652,45.135,223,14.9332,,0.024074274
60.98617737,45.135,232,15.2315,,0.025045881
61.02556822,45.135,245,15.6525,,0.026449314
61.06495907,45.135,208,14.4222,,0.022454928
61.10434991,45.135,223,14.9332,,0.024074274
61.14374076,45.135,264,16.2481,,0.028500486
61.18313161,45.135,211,14.5258,,0.022778797
61.22252246,45.135,245,15.6525,,0.026449314
61.26191331,45.135,257,16.0312,,0.027744791
61.30130415,45.135,234,15.2971,,0.025261794
61.340695,45.135,261,16.1555,,0.028176617
61.38008585,45.135,245,15.6525,,0.026449314
61.4194767,45.135,250,15.8114,,0.026989096
61.45886755,45.135,234,15.2971,,0.025261794
61.49825839,45.135,229,15.1327,,0.024722012
61.53764924,45.135,245,15.6525,,0.026449314
61.57704009,45.135,235,15.3297,,0.025369751
61.61643094,45.135,204,14.2829,,0.022023103
61.65582179,45.135,236,15.3623,,0.025477707
61.69521264,45.135,252,15.8745,,0.027205009
61.73460348,45.135,236,15.3623,,0.025477707
61.77399433,45.135,247,15.7162,,0.026665227
61.81338518,45.135,216,14.6969,,0.023318579
61.85277603,45.135,219,14.7986,,0.023642448
61.89216688,45.135,270,16.4317,,0.029148224
61.93155772,45.135,215,14.6629,,0.023210623
61.97094857,45.135,228,15.0997,,0.024614056
62.01033942,45.135,258,16.0624,,0.027852747
62.04973027,45.135,231,15.1987,,0.024937925
62.08912112,45.135,228,15.0997,,0.024614056
62.12851196,45.135,231,15.1987,,0.024937925
62.16790281,45.135,246,15.6844,,0.026557271
62.20729366,45.135,243,15.5885,,0.026233402
62.24668451,45.135,243,15.5885,,0.026233402
62.28607536,45.135,225,15,,0.024290187
62.3254662,45.135,257,16.0312,,0.027744791
62.36485705,45.135,231,15.1987,,0.024937925
62.4042479,45.135,230,15.1658,,0.024829969
62.44363875,45.135,266,16.3095,,0.028716399
62.4830296,45.135,230,15.1658,,0.024829969
62.52242044,45.135,265,16.2788,,0.028608442
62.56181129,45.135,254,15.9374,,0.027420922
62.60120214,45.135,229,15.1327,,0.024722012
62.64059299,45.135,240,15.4919,,0.025909533
62.67998384,45.135,265,16.2788,,0.028608442
62.71937468,45.135,286,16.9115,,0.030875526
62.75876553,45.135,276,16.6132,,0.029795962
62.79815638,45.135,251,15.843,,0.027097053
62.83754723,45.135,301,17.3494,,0.032494872
62.87693808,45.135,311,17.6352,,0.033574436
62.91632892,45.135,300,17.3205,,0.032386916
62.95571977,45.135,368,19.1833,,0.03972795
62.99511062,45.135,481,21.9317,,0.051927021
63.03450147,45.135,561,23.6854,,0.060563532
63.07389232,45.135,794,28.178,,0.08571737
63.11328316,45.135,959,30.9677,,0.103530174
63.15267401,45.135,927,30.4467,,0.100075569
63.19206486,45.135,882,29.6985,,0.095217532
63.23145571,45.135,751,27.4044,,0.081075246
63.27084656,45.135,722,26.8701,,0.07794451
63.3102374,45.135,723,26.8887,,0.078052467
63.34962825,45.135,620,24.8998,,0.066932959
63.3890191,45.135,487,22.0681,,0.05257476
63.42840995,45.135,422,20.5426,,0.045557595
63.4678008,45.135,339,18.412,,0.036597215
63.50719164,45.135,286,16.9115,,0.030875526
63.54658249,45.135,301,17.3494,,0.032494872
63.58597334,45.135,253,15.906,,0.027312966
63.62536419,45.135,296,17.2047,,0.03195509
63.66475504,45.135,276,16.6132,,0.029795962
63.70414588,45.135,216,14.6969,,0.023318579
63.74353673,45.135,227,15.0665,,0.0245061
63.78292758,45.135,218,14.7648,,0.023534492
63.82231843,45.135,218,14.7648,,0.023534492
63.86170928,45.135,234,15.2971,,0.025261794
63.90110012,45.135,191,13.8203,,0.02061967
63.94049097,45.135,231,15.1987,,0.024937925
63.97988182,45.135,217,14.7309,,0.023426536
64.01927267,45.135,227,15.0665,,0.0245061
64.05866352,45.135,204,14.2829,,0.022023103
64.09805436,45.135,237,15.3948,,0.025585663
64.13744521,45.135,202,14.2127,,0.02180719
64.17683606,45.135,216,14.6969,,0.023318579
64.21622691,45.135,217,14.7309,,0.023426536
64.25561776,45.135,203,14.2478,,0.021915146
64.2950086,45.135,210,14.4914,,0.022670841
64.33439945,45.135,216,14.6969,,0.023318579
64.3737903,45.135,210,14.4914,,0.022670841
64.41318115,45.135,221,14.8661,,0.023858361
64.452572,45.135,195,13.9642,,0.021051495
64.49196285,45.135,213,14.5945,,0.02299471
64.53135369,45.135,212,14.5602,,0.022886754
64.57074454,45.135,217,14.7309,,0.023426536
64.61013539,45.135,216,14.6969,,0.023318579
64.64952624,45.135,204,14.2829,,0.022023103
64.68891709,45.135,193,13.8924,,0.020835582
64.72830793,45.135,229,15.1327,,0.024722012
64.76769878,45.135,179,13.3791,,0.019324193
64.80708963,45.135,195,13.9642,,0.021051495
64.84648048,45.135,183,13.5277,,0.019756019
64.88587133,45.135,202,14.2127,,0.02180719
64.92526217,45.135,201,14.1774,,0.021699234
64.96465302,45.135,197,14.0357,,0.021267408
65.00404387,45.135,197,14.0357,,0.021267408
65.04343472,45.135,191,13.8203,,0.02061967
65.08282557,45.135,184,13.5647,,0.019863975
65.12221641,45.135,190,13.784,,0.020511713
65.16160726,45.135,209,14.4568,,0.022562885
65.20099811,45.135,219,14.7986,,0.023642448
65.24038896,45.135,218,14.7648,,0.023534492
65.27977981,45.135,189,13.7477,,0.020403757
65.31917065,45.135,228,15.0997,,0.024614056
65.3585615,45.135,214,14.6287,,0.023102667
65.39795235,45.135,227,15.0665,,0.0245061
65.4373432,45.135,217,14.7309,,0.023426536
65.47673405,45.135,199,14.1067,,0.021483321
65.51612489,45.135,191,13.8203,,0.02061967
65.55551574,45.135,201,14.1774,,0.021699234
65.59490659,45.135,239,15.4596,,0.025801576
65.63429744,45.135,212,14.5602,,0.022886754
65.67368829,45.135,236,15.3623,,0.025477707
65.71307913,45.135,209,14.4568,,0.022562885
65.75246998,45.135,202,14.2127,,0.02180719
65.79186083,45.135,199,14.1067,,0.021483321
65.83125168,45.135,213,14.5945,,0.02299471
65.87064253,45.135,203,14.2478,,0.021915146
65.91003337,45.135,217,14.7309,,0.023426536
65.94942422,45.135,198,14.0712,,0.021375364
65.98881507,45.135,199,14.1067,,0.021483321
66.02820592,45.135,233,15.2643,,0.025153838
66.06759677,45.135,213,14.5945,,0.02299471
66.10698761,45.135,208,14.4222,,0.022454928
66.14637846,45.135,234,15.2971,,0.025261794
66.18576931,45.135,174,13.1909,,0.018784411
66.22516016,45.135,238,15.4272,,0.02569362
66.26455101,45.135,219,14.7986,,0.023642448
66.30394185,45.135,218,14.7648,,0.023534492
66.3433327,45.135,197,14.0357,,0.021267408
66.38272355,45.135,219,14.7986,,0.023642448
66.4221144,45.135,185,13.6015,,0.019971931
66.46150525,45.135,188,13.7113,,0.0202958
66.50089609,45.135,181,13.4536,,0.019540106
66.54028694,45.135,173,13.1529,,0.018676455
66.57967779,45.135,203,14.2478,,0.021915146
66.61906864,45.135,201,14.1774,,0.021699234
66.65845949,45.135,211,14.5258,,0.022778797
66.69785033,45.135,215,14.6629,,0.023210623
66.73724118,45.135,180,13.4164,,0.019432149
66.77663203,45.135,212,14.5602,,0.022886754
66.81602288,45.135,207,14.3875,,0.022346972
66.85541373,45.135,211,14.5258,,0.022778797
66.89480457,45.135,190,13.784,,0.020511713
66.93419542,45.135,189,13.7477,,0.020403757
66.97358627,45.135,214,14.6287,,0.023102667
67.01297712,45.135,204,14.2829,,0.022023103
67.05236797,45.135,184,13.5647,,0.019863975
67.09175882,45.135,206,14.3527,,0.022239015
67.13114966,45.135,220,14.8324,,0.023750405
67.17054051,45.135,205,14.3178,,0.022131059
67.20993136,45.135,217,14.7309,,0.023426536
67.24932221,45.135,244,15.6205,,0.026341358
67.28871306,45.135,217,14.7309,,0.023426536
67.3281039,45.135,296,17.2047,,0.03195509
67.36749475,45.135,295,17.1756,,0.031847134
67.4068856,45.135,323,17.9722,,0.034869913
67.44627645,45.135,262,16.1864,,0.028284573
67.4856673,45.135,241,15.5242,,0.026017489
67.52505814,45.135,249,15.7797,,0.02688114
67.56444899,45.135,270,16.4317,,0.029148224
67.60383984,45.135,265,16.2788,,0.028608442
67.64323069,45.135,238,15.4272,,0.02569362
67.68262154,45.135,212,14.5602,,0.022886754
67.72201238,45.135,220,14.8324,,0.023750405
67.76140323,45.135,236,15.3623,,0.025477707
67.80079408,45.135,212,14.5602,,0.022886754
67.84018493,45.135,221,14.8661,,0.023858361
67.87957578,45.135,214,14.6287,,0.023102667
67.91896662,45.135,228,15.0997,,0.024614056
67.95835747,45.135,223,14.9332,,0.024074274
67.99774832,45.135,215,14.6629,,0.023210623
68.03713917,45.135,216,14.6969,,0.023318579
68.07653002,45.135,204,14.2829,,0.022023103
68.11592086,45.135,224,14.9666,,0.02418223
68.15531171,45.135,226,15.0333,,0.024398143
68.19470256,45.135,195,13.9642,,0.021051495
68.23409341,45.135,217,14.7309,,0.023426536
68.27348426,45.135,224,14.9666,,0.02418223
68.3128751,45.135,227,15.0665,,0.0245061
68.35226595,45.135,227,15.0665,,0.0245061
68.3916568,45.135,273,16.5227,,0.029472093
68.43104765,45.135,260,16.1245,,0.02806866
68.4704385,45.135,291,17.0587,,0.031415308
68.50982934,45.135,301,17.3494,,0.032494872
68.54922019,45.135,348,18.6548,,0.037568822
68.58861104,45.135,416,20.3961,,0.044909856
68.62800189,45.135,594,24.3721,,0.064126093
68.66739274,45.135,824,28.7054,,0.088956062
68.70678358,45.135,965,31.0644,,0.104177912
68.74617443,45.135,894,29.8998,,0.096513009
68.78556528,45.135,641,25.318,,0.069200043
68.82495613,45.135,581,24.1039,,0.06272266
68.86434698,45.135,601,24.5153,,0.064881788
68.90373782,45.135,640,25.2982,,0.069092087
68.94312867,45.135,559,23.6432,,0.06034762
68.98251952,45.135,419,20.4695,,0.045233726
69.02191037,45.135,292,17.088,,0.031523265
69.06130122,45.135,273,16.5227,,0.029472093
69.10069206,45.135,256,16,,0.027636835
69.14008291,45.135,292,17.088,,0.031523265
69.17947376,45.135,267,16.3401,,0.028824355
69.21886461,45.135,234,15.2971,,0.025261794
69.25825546,45.135,204,14.2829,,0.022023103
69.2976463,45.135,242,15.5563,,0.026125445
69.33703715,45.135,226,15.0333,,0.024398143
69.376428,45.135,227,15.0665,,0.0245061
69.41581885,45.135,207,14.3875,,0.022346972
69.4552097,45.135,196,14,,0.021159452
69.49460054,45.135,204,14.2829,,0.022023103
69.53399139,45.135,218,14.7648,,0.023534492
69.57338224,45.135,223,14.9332,,0.024074274
69.61277309,45.135,235,15.3297,,0.025369751
69.65216394,45.135,199,14.1067,,0.021483321
69.69155478,45.135,217,14.7309,,0.023426536
69.73094563,45.135,268,16.3707,,0.028932311
69.77033648,45.135,223,14.9332,,0.024074274
69.80972733,45.135,249,15.7797,,0.02688114
69.84911818,45.135,248,15.748,,0.026773184
69.88850903,45.135,252,15.8745,,0.027205009
69.92789987,45.135,321,17.9165,,0.034654
69.96729072,45.135,344,18.5472,,0.037136997
70.00668157,45.135,508,22.5389,,0.054841844
70.04607242,45.135,641,25.318,,0.069200043
70.08546327,45.135,671,25.9037,,0.072438735
70.12485411,45.135,637,25.2389,,0.068768218
70.16424496,45.135,520,22.8035,,0.056137321
70.20363581,45.135,496,22.2711,,0.053546367
70.24302666,45.135,420,20.4939,,0.045341682
70.28241751,45.135,515,22.6936,,0.055597539
70.32180835,45.135,403,20.0749,,0.043506423
70.3611992,45.135,349,18.6815,,0.037676779
70.40059005,45.135,277,16.6433,,0.029903919
70.4399809,45.135,220,14.8324,,0.023750405
70.47937175,45.135,236,15.3623,,0.025477707
70.51876259,45.135,199,14.1067,,0.021483321
70.55815344,45.135,205,14.3178,,0.022131059
70.59754429,45.135,182,13.4907,,0.019648062
70.63693514,45.135,224,14.9666,,0.02418223
70.67632599,45.135,219,14.7986,,0.023642448
70.71571683,45.135,199,14.1067,,0.021483321
70.75510768,45.135,205,14.3178,,0.022131059
70.79449853,45.135,216,14.6969,,0.023318579
70.83388938,45.135,193,13.8924,,0.020835582
70.87328023,45.135,200,14.1421,,0.021591277
70.91267107,45.135,197,14.0357,,0.021267408
70.95206192,45.135,213,14.5945,,0.02299471
70.99145277,45.135,228,15.0997,,0.024614056
71.03084362,45.135,192,13.8564,,0.020727626
71.07023447,45.135,181,13.4536,,0.019540106
71.10962531,45.135,203,14.2478,,0.021915146
71.14901616,45.135,207,14.3875,,0.022346972
71.18840701,45.135,209,14.4568,,0.022562885
71.22779786,45.135,182,13.4907,,0.019648062
71.26718871,45.135,211,14.5258,,0.022778797
71.30657955,45.135,167,12.9228,,0.018028716
71.3459704,45.135,194,13.9284,,0.020943539
71.38536125,45.135,183,13.5277,,0.019756019
71.4247521,45.135,178,13.3417,,0.019216237
71.46414295,45.135,167,12.9228,,0.018028716
71.50353379,45.135,179,13.3791,,0.019324193
71.54292464,45.135,171,13.0767,,0.018460542
71.58231549,45.135,199,14.1067,,0.021483321
71.62170634,45.135,178,13.3417,,0.019216237
71.66109719,45.135,183,13.5277,,0.019756019
71.70048803,45.135,183,13.5277,,0.019756019
71.73987888,45.135,206,14.3527,,0.022239015
71.77926973,45.135,180,13.4164,,0.019432149
71.81866058,45.135,210,14.4914,,0.022670841
71.85805143,45.135,197,14.0357,,0.021267408
71.89744227,45.135,199,14.1067,,0.021483321
71.93683312,45.135,189,13.7477,,0.020403757
71.97622397,45.135,193,13.8924,,0.020835582
72.01561482,45.135,182,13.4907,,0.019648062
72.05500567,45.135,199,14.1067,,0.021483321
72.09439651,45.135,203,14.2478,,0.021915146
72.13378736,45.135,184,13.5647,,0.019863975
72.17317821,45.135,149,12.2066,,0.016085501
72.21256906,45.135,185,13.6015,,0.019971931
72.25195991,45.135,185,13.6015,,0.019971931
72.29135075,45.135,191,13.8203,,0.02061967
72.3307416,45.135,186,13.6382,,0.020079888
72.37013245,45.135,170,13.0384,,0.018352586
72.4095233,45.135,191,13.8203,,0.02061967
72.44891415,45.135,203,14.2478,,0.021915146
72.488305,45.135,216,14.6969,,0.023318579
72.52769584,45.135,260,16.1245,,0.02806866
72.56708669,45.135,278,16.6733,,0.030011875
72.60647754,45.135,286,16.9115,,0.030875526
72.64586839,45.135,247,15.7162,,0.026665227
72.68525924,45.135,212,14.5602,,0.022886754
72.72465008,45.135,237,15.3948,,0.025585663
72.76404093,45.135,207,14.3875,,0.022346972
72.80343178,45.135,221,14.8661,,0.023858361
72.84282263,45.135,218,14.7648,,0.023534492
72.88221348,45.135,202,14.2127,,0.02180719
72.92160432,45.135,185,13.6015,,0.019971931
72.96099517,45.135,204,14.2829,,0.022023103
73.00038602,45.135,201,14.1774,,0.021699234
73.03977687,45.135,176,13.2665,,0.019000324
73.07916772,45.135,182,13.4907,,0.019648062
73.11855856,45.135,191,13.8203,,0.02061967
73.15794941,45.135,179,13.3791,,0.019324193
73.19734026,45.135,178,13.3417,,0.019216237
73.23673111,45.135,193,13.8924,,0.020835582
73.27612196,45.135,193,13.8924,,0.020835582
73.3155128,45.135,179,13.3791,,0.019324193
73.35490365,45.135,180,13.4164,,0.019432149
73.3942945,45.135,145,12.0416,,0.015653676
73.43368535,45.135,174,13.1909,,0.018784411
73.4730762,45.135,173,13.1529,,0.018676455
73.51246704,45.135,190,13.784,,0.020511713
73.55185789,45.135,198,14.0712,,0.021375364
73.59124874,45.135,190,13.784,,0.020511713
73.63063959,45.135,170,13.0384,,0.018352586
73.67003044,45.135,179,13.3791,,0.019324193
73.70942128,45.135,171,13.0767,,0.018460542
73.74881213,45.135,183,13.5277,,0.019756019
73.78820298,45.135,188,13.7113,,0.0202958
73.82759383,45.135,177,13.3041,,0.01910828
73.86698468,45.135,171,13.0767,,0.018460542
73.90637552,45.135,159,12.6095,,0.017165065
73.94576637,45.135,182,13.4907,,0.019648062
73.98515722,45.135,158,12.5698,,0.017057109
74.02454807,45.135,150,12.2474,,0.016193458
74.06393892,45.135,156,12.49,,0.016841196
74.10332976,45.135,201,14.1774,,0.021699234
74.14272061,45.135,203,14.2478,,0.021915146
74.18211146,45.135,206,14.3527,,0.022239015
74.22150231,45.135,185,13.6015,,0.019971931
74.26089316,45.135,208,14.4222,,0.022454928
74.300284,45.135,182,13.4907,,0.019648062
74.33967485,45.135,183,13.5277,,0.019756019
74.3790657,45.135,166,12.8841,,0.01792076
74.41845655,45.135,173,13.1529,,0.018676455
74.4578474,45.135,151,12.2882,,0.016301414
74.49723824,45.135,177,13.3041,,0.01910828
74.53662909,45.135,181,13.4536,,0.019540106
74.57601994,45.135,189,13.7477,,0.020403757
74.61541079,45.135,170,13.0384,,0.018352586
74.65480164,45.135,172,13.1149,,0.018568498
74.69419248,45.135,156,12.49,,0.016841196
74.73358333,45.135,186,13.6382,,0.020079888
74.77297418,45.135,159,12.6095,,0.017165065
74.81236503,45.135,181,13.4536,,0.019540106
74.85175588,45.135,185,13.6015,,0.019971931
74.89114672,45.135,184,13.5647,,0.019863975
74.93053757,45.135,205,14.3178,,0.022131059
74.96992842,45.135,177,13.3041,,0.01910828
75.00931927,45.135,148,12.1655,,0.015977545
75.04871012,45.135,178,13.3417,,0.019216237
75.08810096,45.135,158,12.5698,,0.017057109
75.12749181,45.135,188,13.7113,,0.0202958
75.16688266,45.135,185,13.6015,,0.019971931
75.20627351,45.135,169,13,,0.018244629
75.24566436,45.135,155,12.4499,,0.01673324
75.28505521,45.135,142,11.9164,,0.015329807
75.32444605,45.135,152,12.3288,,0.016409371
75.3638369,45.135,190,13.784,,0.020511713
75.40322775,45.135,172,13.1149,,0.018568498
75.4426186,45.135,198,14.0712,,0.021375364
75.48200945,45.135,159,12.6095,,0.017165065
75.52140029,45.135,196,14,,0.021159452
75.56079114,45.135,179,13.3791,,0.019324193
75.60018199,45.135,175,13.2288,,0.018892367
75.63957284,45.135,157,12.53,,0.016949153
75.67896369,45.135,173,13.1529,,0.018676455
75.71835453,45.135,177,13.3041,,0.01910828
75.75774538,45.135,174,13.1909,,0.018784411
75.79713623,45.135,165,12.8452,,0.017812804
75.83652708,45.135,173,13.1529,,0.018676455
75.87591793,45.135,177,13.3041,,0.01910828
75.91530877,45.135,159,12.6095,,0.017165065
75.95469962,45.135,159,12.6095,,0.017165065
75.99409047,45.135,163,12.7671,,0.017596891
76.03348132,45.135,166,12.8841,,0.01792076
76.07287217,45.135,171,13.0767,,0.018460542
76.11226301,45.135,173,13.1529,,0.018676455
76.15165386,45.135,180,13.4164,,0.019432149
76.19104471,45.135,209,14.4568,,0.022562885
76.23043556,45.135,176,13.2665,,0.019000324
76.26982641,45.135,185,13.6015,,0.019971931
76.30921725,45.135,176,13.2665,,0.019000324
76.3486081,45.135,164,12.8062,,0.017704847
76.38799895,45.135,171,13.0767,,0.018460542
76.4273898,45.135,152,12.3288,,0.016409371
76.46678065,45.135,173,13.1529,,0.018676455
76.50617149,45.135,181,13.4536,,0.019540106
76.54556234,45.135,156,12.49,,0.016841196
76.58495319,45.135,174,13.1909,,0.018784411
76.62434404,45.135,179,13.3791,,0.019324193
76.66373489,45.135,149,12.2066,,0.016085501
76.70312573,45.135,181,13.4536,,0.019540106
76.74251658,45.135,182,13.4907,,0.019648062
76.78190743,45.135,177,13.3041,,0.01910828
76.82129828,45.135,185,13.6015,,0.019971931
76.86068913,45.135,191,13.8203,,0.02061967
76.90007997,45.135,175,13.2288,,0.018892367
76.93947082,45.135,150,12.2474,,0.016193458
76.97886167,45.135,174,13.1909,,0.018784411
77.01825252,45.135,180,13.4164,,0.019432149
77.05764337,45.135,177,13.3041,,0.01910828
77.09703421,45.135,175,13.2288,,0.018892367
77.13642506,45.135,201,14.1774,,0.021699234
77.17581591,45.135,169,13,,0.018244629
77.21520676,45.135,205,14.3178,,0.022131059
77.25459761,45.135,198,14.0712,,0.021375364
77.29398845,45.135,188,13.7113,,0.0202958
77.3333793,45.135,196,14,,0.021159452
77.37277015,45.135,198,14.0712,,0.021375364
77.412161,45.135,159,12.6095,,0.017165065
77.45155185,45.135,162,12.7279,,0.017488934
77.49094269,45.135,201,14.1774,,0.021699234
77.53033354,45.135,191,13.8203,,0.02061967
77.56972439,45.135,157,12.53,,0.016949153
77.60911524,45.135,168,12.9615,,0.018136673
77.64850609,45.135,182,13.4907,,0.019648062
77.68789693,45.135,189,13.7477,,0.020403757
77.72728778,45.135,214,14.6287,,0.023102667
77.76667863,45.135,207,14.3875,,0.022346972
77.80606948,45.135,209,14.4568,,0.022562885
77.84546033,45.135,225,15,,0.024290187
77.88485117,45.135,254,15.9374,,0.027420922
77.92424202,45.135,266,16.3095,,0.028716399
77.96363287,45.135,222,14.8997,,0.023966318
78.00302372,45.135,222,14.8997,,0.023966318
78.04241457,45.135,229,15.1327,,0.024722012
78.08180542,45.135,211,14.5258,,0.022778797
78.12119626,45.135,207,14.3875,,0.022346972
78.16058711,45.135,196,14,,0.021159452
78.19997796,45.135,202,14.2127,,0.02180719
78.23936881,45.135,209,14.4568,,0.022562885
78.27875966,45.135,214,14.6287,,0.023102667
78.3181505,45.135,167,12.9228,,0.018028716
78.35754135,45.135,191,13.8203,,0.02061967
78.3969322,45.135,193,13.8924,,0.020835582
78.43632305,45.135,197,14.0357,,0.021267408
78.4757139,45.135,186,13.6382,,0.020079888
78.51510474,45.135,193,13.8924,,0.020835582
78.55449559,45.135,177,13.3041,,0.01910828
78.59388644,45.135,176,13.2665,,0.019000324
78.63327729,45.135,177,13.3041,,0.01910828
78.67266814,45.135,128,11.3137,,0.013818417
78.71205898,45.135,165,12.8452,,0.017812804
78.75144983,45.135,173,13.1529,,0.018676455
78.79084068,45.135,179,13.3791,,0.019324193
78.83023153,45.135,199,14.1067,,0.021483321
78.86962238,45.135,168,12.9615,,0.018136673
78.90901322,45.135,165,12.8452,,0.017812804
78.94840407,45.135,164,12.8062,,0.017704847
78.98779492,45.135,158,12.5698,,0.017057109
79.02718577,45.135,179,13.3791,,0.019324193
79.06657662,45.135,165,12.8452,,0.017812804
79.10596746,45.135,161,12.6886,,0.017380978
79.14535831,45.135,165,12.8452,,0.017812804
79.18474916,45.135,134,11.5758,,0.014466156
79.22414001,45.135,164,12.8062,,0.017704847
79.26353086,45.135,133,11.5326,,0.014358199
79.3029217,45.135,188,13.7113,,0.0202958
79.34231255,45.135,152,12.3288,,0.016409371
79.3817034,45.135,148,12.1655,,0.015977545
79.42109425,45.135,132,11.4891,,0.014250243
79.4604851,45.135,154,12.4097,,0.016625283
79.49987594,45.135,164,12.8062,,0.017704847
79.53926679,45.135,188,13.7113,,0.0202958
79.57865764,45.135,164,12.8062,,0.017704847
79.61804849,45.135,152,12.3288,,0.016409371
79.65743934,45.135,134,11.5758,,0.014466156
79.69683018,45.135,172,13.1149,,0.018568498
79.73622103,45.135,133,11.5326,,0.014358199
79.77561188,45.135,143,11.9583,,0.015437763
79.81500273,45.135,155,12.4499,,0.01673324
79.85439358,45.135,154,12.4097,,0.016625283
79.89378442,45.135,159,12.6095,,0.017165065
79.93317527,45.135,180,13.4164,,0.019432149
79.97256612,45.135,175,13.2288,,0.018892367
