[Measurement conditions],,,,,
Sample identification,,,,,
Comment - 1,"Configuration=Reflection-transmission spinner, Owner=User-1, Creation date=12/4/2012 10:13:13 AM",,,,
Comment - 2,Goniometer=Theta/Theta; Minimum step size 2Theta:0.0001; Minimum step size Omega:0.0001,,,,
Comment - 3,Sample stage=Reflection-transmission spinner; Minimum step size Phi:0.1,,,,
Comment - 4,Diffractometer system=EMPYREAN,,,,
Comment - 5,"Measurement program=C:\PANalytical\Data Collector\Programs\PI Lorenzo Mangolini\BrandonWagner_Mg.xrdmp, Identifier={9EE36770-7A59-4EAA-85D0-90E43AFBFC91}",,,,
Anode material,Cu,,,,
K-Alpha1 wavelength,1.540598,,,,
K-Alpha2 wavelength,1.544426,,,,
Ratio K-Alpha2/K-Alpha1,0.5,,,,
Divergence slit,Fixed,0.76mm,,,
Monochromator used,NO,,,,
Generator voltage,45,,,,
Tube current,40,,,,
File date and time,4/5/2023 15:47,,,,
Unit cell,,,,,
h k l, 0 0 0,,,,
Scan axis,Gonio,,,,
Scan range,20,79.99226154,,,
Scan step size,0.0393908,,,,
No. of points,1523,,,,
Scan type,CONTINUOUS,,,,
Phi,208.5,,,,
Time per step,45.135,,,,
[Scan points],,,,,
Angle, TimePerStep, Intensity, ESD,,
20.01969542,45.135,528,22.9783,7384,0.071505959
20.05908627,45.135,566,23.7908,,0.076652221
20.09847712,45.135,522,22.8473,,0.070693391
20.13786796,45.135,527,22.9565,,0.071370531
20.17725881,45.135,482,21.9545,,0.065276273
20.21664966,45.135,491,22.1585,,0.066495125
20.25604051,45.135,493,22.2036,,0.06676598
20.29543136,45.135,485,22.0227,,0.065682557
20.3348222,45.135,493,22.2036,,0.06676598
20.37421305,45.135,491,22.1585,,0.066495125
20.4136039,45.135,478,21.8632,,0.064734561
20.45299475,45.135,516,22.7156,,0.069880823
20.4923856,45.135,514,22.6716,,0.069609967
20.53177644,45.135,466,21.587,,0.063109426
20.57116729,45.135,498,22.3159,,0.06744312
20.61055814,45.135,474,21.7715,,0.064192849
20.64994899,45.135,497,22.2935,,0.067307692
20.68933984,45.135,539,23.2164,,0.072995666
20.72873069,45.135,519,22.7816,,0.070287107
20.76812153,45.135,515,22.6936,,0.069745395
20.80751238,45.135,520,22.8035,,0.070422535
20.84690323,45.135,480,21.9089,,0.065005417
20.88629408,45.135,480,21.9089,,0.065005417
20.92568493,45.135,500,22.3607,,0.067713976
20.96507577,45.135,500,22.3607,,0.067713976
21.00446662,45.135,498,22.3159,,0.06744312
21.04385747,45.135,509,22.561,,0.068932828
21.08324832,45.135,463,21.5174,,0.062703142
21.12263917,45.135,472,21.7256,,0.063921993
21.16203001,45.135,451,21.2368,,0.061078007
21.20142086,45.135,473,21.7486,,0.064057421
21.24081171,45.135,465,21.5639,,0.062973998
21.28020256,45.135,472,21.7256,,0.063921993
21.31959341,45.135,450,21.2132,,0.060942579
21.35898425,45.135,481,21.9317,,0.065140845
21.3983751,45.135,430,20.7364,,0.05823402
21.43776595,45.135,456,21.3542,,0.061755146
21.4771568,45.135,470,21.6795,,0.063651138
21.51654765,45.135,470,21.6795,,0.063651138
21.55593849,45.135,445,21.095,,0.060265439
21.59532934,45.135,463,21.5174,,0.062703142
21.63472019,45.135,452,21.2603,,0.061213434
21.67411104,45.135,478,21.8632,,0.064734561
21.71350189,45.135,499,22.3383,,0.067578548
21.75289273,45.135,467,21.6102,,0.063244854
21.79228358,45.135,461,21.4709,,0.062432286
21.83167443,45.135,470,21.6795,,0.063651138
21.87106528,45.135,491,22.1585,,0.066495125
21.91045613,45.135,469,21.6564,,0.06351571
21.94984697,45.135,491,22.1585,,0.066495125
21.98923782,45.135,437,20.9045,,0.059182015
22.02862867,45.135,452,21.2603,,0.061213434
22.06801952,45.135,493,22.2036,,0.06676598
22.10741037,45.135,470,21.6795,,0.063651138
22.14680121,45.135,455,21.3307,,0.061619718
22.18619206,45.135,487,22.0681,,0.065953413
22.22558291,45.135,461,21.4709,,0.062432286
22.26497376,45.135,463,21.5174,,0.062703142
22.30436461,45.135,477,21.8403,,0.064599133
22.34375545,45.135,472,21.7256,,0.063921993
22.3831463,45.135,449,21.1896,,0.060807151
22.42253715,45.135,464,21.5407,,0.06283857
22.461928,45.135,462,21.4942,,0.062567714
22.50131885,45.135,437,20.9045,,0.059182015
22.54070969,45.135,439,20.9523,,0.059452871
22.58010054,45.135,419,20.4695,,0.056744312
22.61949139,45.135,485,22.0227,,0.065682557
22.65888224,45.135,421,20.5183,,0.057015168
22.69827309,45.135,417,20.4206,,0.056473456
22.73766393,45.135,465,21.5639,,0.062973998
22.77705478,45.135,392,19.799,,0.053087757
22.81644563,45.135,439,20.9523,,0.059452871
22.85583648,45.135,447,21.1424,,0.060536295
22.89522733,45.135,430,20.7364,,0.05823402
22.93461817,45.135,415,20.3715,,0.0562026
22.97400902,45.135,454,21.3073,,0.06148429
23.01339987,45.135,424,20.5913,,0.057421452
23.05279072,45.135,452,21.2603,,0.061213434
23.09218157,45.135,464,21.5407,,0.06283857
23.13157241,45.135,432,20.7846,,0.058504875
23.17096326,45.135,432,20.7846,,0.058504875
23.21035411,45.135,417,20.4206,,0.056473456
23.24974496,45.135,408,20.199,,0.055254605
23.28913581,45.135,408,20.199,,0.055254605
23.32852665,45.135,429,20.7123,,0.058098592
23.3679175,45.135,429,20.7123,,0.058098592
23.40730835,45.135,460,21.4476,,0.062296858
23.4466992,45.135,401,20.025,,0.054306609
23.48609005,45.135,441,21,,0.059723727
23.5254809,45.135,398,19.9499,,0.053900325
23.56487174,45.135,453,21.2838,,0.061348862
23.60426259,45.135,472,21.7256,,0.063921993
23.64365344,45.135,391,19.7737,,0.052952329
23.68304429,45.135,393,19.8242,,0.053223185
23.72243514,45.135,459,21.4243,,0.06216143
23.76182598,45.135,415,20.3715,,0.0562026
23.80121683,45.135,446,21.1187,,0.060400867
23.84060768,45.135,416,20.3961,,0.056338028
23.87999853,45.135,419,20.4695,,0.056744312
23.91938938,45.135,438,20.9284,,0.059317443
23.95878022,45.135,424,20.5913,,0.057421452
23.99817107,45.135,449,21.1896,,0.060807151
24.03756192,45.135,426,20.6398,,0.057692308
24.07695277,45.135,415,20.3715,,0.0562026
24.11634362,45.135,444,21.0713,,0.060130011
24.15573446,45.135,419,20.4695,,0.056744312
24.19512531,45.135,405,20.1246,,0.054848321
24.23451616,45.135,431,20.7605,,0.058369447
24.27390701,45.135,408,20.199,,0.055254605
24.31329786,45.135,421,20.5183,,0.057015168
24.3526887,45.135,419,20.4695,,0.056744312
24.39207955,45.135,398,19.9499,,0.053900325
24.4314704,45.135,446,21.1187,,0.060400867
24.47086125,45.135,407,20.1742,,0.055119177
24.5102521,45.135,428,20.6882,,0.057963164
24.54964294,45.135,461,21.4709,,0.062432286
24.58903379,45.135,386,19.6469,,0.05227519
24.62842464,45.135,451,21.2368,,0.061078007
24.66781549,45.135,430,20.7364,,0.05823402
24.70720634,45.135,423,20.567,,0.057286024
24.74659718,45.135,456,21.3542,,0.061755146
24.78598803,45.135,420,20.4939,,0.05687974
24.82537888,45.135,380,19.4936,,0.051462622
24.86476973,45.135,389,19.7231,,0.052681473
24.90416058,45.135,424,20.5913,,0.057421452
24.94355142,45.135,398,19.9499,,0.053900325
24.98294227,45.135,424,20.5913,,0.057421452
25.02233312,45.135,389,19.7231,,0.052681473
25.06172397,45.135,410,20.2485,,0.05552546
25.10111482,45.135,425,20.6155,,0.05755688
25.14050566,45.135,425,20.6155,,0.05755688
25.17989651,45.135,394,19.8494,,0.053358613
25.21928736,45.135,403,20.0749,,0.054577465
25.25867821,45.135,428,20.6882,,0.057963164
25.29806906,45.135,443,21.0476,,0.059994583
25.3374599,45.135,420,20.4939,,0.05687974
25.37685075,45.135,440,20.9762,,0.059588299
25.4162416,45.135,447,21.1424,,0.060536295
25.45563245,45.135,443,21.0476,,0.059994583
25.4950233,45.135,408,20.199,,0.055254605
25.53441414,45.135,391,19.7737,,0.052952329
25.57380499,45.135,399,19.975,,0.054035753
25.61319584,45.135,365,19.105,,0.049431203
25.65258669,45.135,443,21.0476,,0.059994583
25.69197754,45.135,398,19.9499,,0.053900325
25.73136838,45.135,395,19.8746,,0.053494041
25.77075923,45.135,362,19.0263,,0.049024919
25.81015008,45.135,402,20.0499,,0.054442037
25.84954093,45.135,378,19.4422,,0.051191766
25.88893178,45.135,415,20.3715,,0.0562026
25.92832262,45.135,433,20.8087,,0.058640303
25.96771347,45.135,387,19.6723,,0.052410618
26.00710432,45.135,387,19.6723,,0.052410618
26.04649517,45.135,395,19.8746,,0.053494041
26.08588602,45.135,412,20.2978,,0.055796316
26.12527686,45.135,428,20.6882,,0.057963164
26.16466771,45.135,369,19.2094,,0.049972914
26.20405856,45.135,380,19.4936,,0.051462622
26.24344941,45.135,406,20.1494,,0.054983749
26.28284026,45.135,399,19.975,,0.054035753
26.32223111,45.135,420,20.4939,,0.05687974
26.36162195,45.135,422,20.5426,,0.057150596
26.4010128,45.135,389,19.7231,,0.052681473
26.44040365,45.135,411,20.2731,,0.055660888
26.4797945,45.135,385,19.6214,,0.052139762
26.51918535,45.135,394,19.8494,,0.053358613
26.55857619,45.135,395,19.8746,,0.053494041
26.59796704,45.135,431,20.7605,,0.058369447
26.63735789,45.135,389,19.7231,,0.052681473
26.67674874,45.135,393,19.8242,,0.053223185
26.71613959,45.135,397,19.9249,,0.053764897
26.75553043,45.135,403,20.0749,,0.054577465
26.79492128,45.135,375,19.3649,,0.050785482
26.83431213,45.135,359,18.9473,,0.048618635
26.87370298,45.135,423,20.567,,0.057286024
26.91309383,45.135,393,19.8242,,0.053223185
26.95248467,45.135,408,20.199,,0.055254605
26.99187552,45.135,366,19.1311,,0.049566631
27.03126637,45.135,436,20.8806,,0.059046587
27.07065722,45.135,409,20.2237,,0.055390033
27.11004807,45.135,410,20.2485,,0.05552546
27.14943891,45.135,408,20.199,,0.055254605
27.18882976,45.135,419,20.4695,,0.056744312
27.22822061,45.135,409,20.2237,,0.055390033
27.26761146,45.135,396,19.8997,,0.053629469
27.30700231,45.135,454,21.3073,,0.06148429
27.34639315,45.135,414,20.347,,0.056067172
27.385784,45.135,404,20.0998,,0.054712893
27.42517485,45.135,381,19.5192,,0.05159805
27.4645657,45.135,381,19.5192,,0.05159805
27.50395655,45.135,409,20.2237,,0.055390033
27.54334739,45.135,382,19.5448,,0.051733478
27.58273824,45.135,418,20.445,,0.056608884
27.62212909,45.135,429,20.7123,,0.058098592
27.66151994,45.135,423,20.567,,0.057286024
27.70091079,45.135,459,21.4243,,0.06216143
27.74030163,45.135,450,21.2132,,0.060942579
27.77969248,45.135,414,20.347,,0.056067172
27.81908333,45.135,484,22,,0.065547129
27.85847418,45.135,552,23.4947,,0.07475623
27.89786503,45.135,525,22.9129,,0.071099675
27.93725587,45.135,648,25.4558,,0.087757313
27.97664672,45.135,610,24.6982,,0.082611051
28.01603757,45.135,638,25.2587,,0.086403034
28.05542842,45.135,572,23.9165,,0.077464789
28.09481927,45.135,584,24.1661,,0.079089924
28.13421011,45.135,545,23.3452,,0.073808234
28.17360096,45.135,517,22.7376,,0.070016251
28.21299181,45.135,460,21.4476,,0.062296858
28.25238266,45.135,465,21.5639,,0.062973998
28.29177351,45.135,475,21.7945,,0.064328277
28.33116435,45.135,446,21.1187,,0.060400867
28.3705552,45.135,414,20.347,,0.056067172
28.40994605,45.135,427,20.664,,0.057827736
28.4493369,45.135,393,19.8242,,0.053223185
28.48872775,45.135,425,20.6155,,0.05755688
28.52811859,45.135,422,20.5426,,0.057150596
28.56750944,45.135,373,19.3132,,0.050514626
28.60690029,45.135,393,19.8242,,0.053223185
28.64629114,45.135,382,19.5448,,0.051733478
28.68568199,45.135,409,20.2237,,0.055390033
28.72507283,45.135,389,19.7231,,0.052681473
28.76446368,45.135,418,20.445,,0.056608884
28.80385453,45.135,347,18.6279,,0.046993499
28.84324538,45.135,394,19.8494,,0.053358613
28.88263623,45.135,384,19.5959,,0.052004334
28.92202708,45.135,386,19.6469,,0.05227519
28.96141792,45.135,396,19.8997,,0.053629469
29.00080877,45.135,397,19.9249,,0.053764897
29.04019962,45.135,394,19.8494,,0.053358613
29.07959047,45.135,361,19,,0.048889491
29.11898132,45.135,384,19.5959,,0.052004334
29.15837216,45.135,377,19.4165,,0.051056338
29.19776301,45.135,342,18.4932,,0.04631636
29.23715386,45.135,414,20.347,,0.056067172
29.27654471,45.135,385,19.6214,,0.052139762
29.31593556,45.135,383,19.5704,,0.051868906
29.3553264,45.135,398,19.9499,,0.053900325
29.39471725,45.135,382,19.5448,,0.051733478
29.4341081,45.135,389,19.7231,,0.052681473
29.47349895,45.135,342,18.4932,,0.04631636
29.5128898,45.135,400,20,,0.054171181
29.55228064,45.135,376,19.3907,,0.05092091
29.59167149,45.135,369,19.2094,,0.049972914
29.63106234,45.135,390,19.7484,,0.052816901
29.67045319,45.135,386,19.6469,,0.05227519
29.70984404,45.135,326,18.0555,,0.044149512
29.74923488,45.135,368,19.1833,,0.049837486
29.78862573,45.135,385,19.6214,,0.052139762
29.82801658,45.135,382,19.5448,,0.051733478
29.86740743,45.135,379,19.4679,,0.051327194
29.90679828,45.135,336,18.3303,,0.045503792
29.94618912,45.135,364,19.0788,,0.049295775
29.98557997,45.135,362,19.0263,,0.049024919
30.02497082,45.135,357,18.8944,,0.048347779
30.06436167,45.135,364,19.0788,,0.049295775
30.10375252,45.135,357,18.8944,,0.048347779
30.14314336,45.135,363,19.0526,,0.049160347
30.18253421,45.135,370,19.2354,,0.050108342
30.22192506,45.135,369,19.2094,,0.049972914
30.26131591,45.135,342,18.4932,,0.04631636
30.30070676,45.135,348,18.6548,,0.047128927
30.3400976,45.135,345,18.5742,,0.046722644
30.37948845,45.135,352,18.7617,,0.047670639
30.4188793,45.135,366,19.1311,,0.049566631
30.45827015,45.135,346,18.6011,,0.046858072
30.497661,45.135,372,19.2873,,0.050379198
30.53705184,45.135,389,19.7231,,0.052681473
30.57644269,45.135,364,19.0788,,0.049295775
30.61583354,45.135,407,20.1742,,0.055119177
30.65522439,45.135,402,20.0499,,0.054442037
30.69461524,45.135,367,19.1572,,0.049702059
30.73400608,45.135,345,18.5742,,0.046722644
30.77339693,45.135,389,19.7231,,0.052681473
30.81278778,45.135,386,19.6469,,0.05227519
30.85217863,45.135,360,18.9737,,0.048754063
30.89156948,45.135,355,18.8414,,0.048076923
30.93096032,45.135,336,18.3303,,0.045503792
30.97035117,45.135,338,18.3848,,0.045774648
31.00974202,45.135,340,18.4391,,0.046045504
31.04913287,45.135,360,18.9737,,0.048754063
31.08852372,45.135,390,19.7484,,0.052816901
31.12791456,45.135,406,20.1494,,0.054983749
31.16730541,45.135,393,19.8242,,0.053223185
31.20669626,45.135,393,19.8242,,0.053223185
31.24608711,45.135,381,19.5192,,0.05159805
31.28547796,45.135,350,18.7083,,0.047399783
31.3248688,45.135,362,19.0263,,0.049024919
31.36425965,45.135,365,19.105,,0.049431203
31.4036505,45.135,376,19.3907,,0.05092091
31.44304135,45.135,338,18.3848,,0.045774648
31.4824322,45.135,368,19.1833,,0.049837486
31.52182304,45.135,420,20.4939,,0.05687974
31.56121389,45.135,389,19.7231,,0.052681473
31.60060474,45.135,384,19.5959,,0.052004334
31.63999559,45.135,377,19.4165,,0.051056338
31.67938644,45.135,383,19.5704,,0.051868906
31.71877729,45.135,388,19.6977,,0.052546046
31.75816813,45.135,378,19.4422,,0.051191766
31.79755898,45.135,400,20,,0.054171181
31.83694983,45.135,390,19.7484,,0.052816901
31.87634068,45.135,415,20.3715,,0.0562026
31.91573153,45.135,390,19.7484,,0.052816901
31.95512237,45.135,441,21,,0.059723727
31.99451322,45.135,438,20.9284,,0.059317443
32.03390407,45.135,522,22.8473,,0.070693391
32.07329492,45.135,580,24.0832,,0.078548212
32.11268577,45.135,734,27.0924,,0.099404117
32.15207661,45.135,1107,33.2716,,0.149918743
32.19146746,45.135,1687,41.0731,,0.228466956
32.23085831,45.135,2227,47.1911,,0.30159805
32.27024916,45.135,2422,49.2138,,0.328006501
32.30964001,45.135,2110,45.9347,,0.285752979
32.34903085,45.135,1690,41.1096,,0.228873239
32.3884217,45.135,1165,34.1321,,0.157773564
32.42781255,45.135,733,27.074,,0.099268689
32.4672034,45.135,570,23.8747,,0.077193933
32.50659425,45.135,458,21.4009,,0.062026002
32.54598509,45.135,436,20.8806,,0.059046587
32.58537594,45.135,419,20.4695,,0.056744312
32.62476679,45.135,441,21,,0.059723727
32.66415764,45.135,383,19.5704,,0.051868906
32.70354849,45.135,422,20.5426,,0.057150596
32.74293933,45.135,346,18.6011,,0.046858072
32.78233018,45.135,373,19.3132,,0.050514626
32.82172103,45.135,362,19.0263,,0.049024919
32.86111188,45.135,378,19.4422,,0.051191766
32.90050273,45.135,388,19.6977,,0.052546046
32.93989357,45.135,397,19.9249,,0.053764897
32.97928442,45.135,383,19.5704,,0.051868906
33.01867527,45.135,400,20,,0.054171181
33.05806612,45.135,368,19.1833,,0.049837486
33.09745697,45.135,387,19.6723,,0.052410618
33.13684781,45.135,401,20.025,,0.054306609
33.17623866,45.135,394,19.8494,,0.053358613
33.21562951,45.135,407,20.1742,,0.055119177
33.25502036,45.135,389,19.7231,,0.052681473
33.29441121,45.135,380,19.4936,,0.051462622
33.33380205,45.135,359,18.9473,,0.048618635
33.3731929,45.135,393,19.8242,,0.053223185
33.41258375,45.135,363,19.0526,,0.049160347
33.4519746,45.135,386,19.6469,,0.05227519
33.49136545,45.135,372,19.2873,,0.050379198
33.53075629,45.135,340,18.4391,,0.046045504
33.57014714,45.135,388,19.6977,,0.052546046
33.60953799,45.135,371,19.2614,,0.05024377
33.64892884,45.135,349,18.6815,,0.047264355
33.68831969,45.135,426,20.6398,,0.057692308
33.72771053,45.135,362,19.0263,,0.049024919
33.76710138,45.135,371,19.2614,,0.05024377
33.80649223,45.135,393,19.8242,,0.053223185
33.84588308,45.135,398,19.9499,,0.053900325
33.88527393,45.135,398,19.9499,,0.053900325
33.92466477,45.135,404,20.0998,,0.054712893
33.96405562,45.135,381,19.5192,,0.05159805
34.00344647,45.135,425,20.6155,,0.05755688
34.04283732,45.135,437,20.9045,,0.059182015
34.08222817,45.135,409,20.2237,,0.055390033
34.12161901,45.135,385,19.6214,,0.052139762
34.16100986,45.135,420,20.4939,,0.05687974
34.20040071,45.135,509,22.561,,0.068932828
34.23979156,45.135,522,22.8473,,0.070693391
34.27918241,45.135,592,24.3311,,0.080173348
34.31857325,45.135,771,27.7669,,0.104414951
34.3579641,45.135,1057,32.5115,,0.143147346
34.39735495,45.135,1516,38.9358,,0.205308776
34.4367458,45.135,2162,46.4973,,0.292795233
34.47613665,45.135,2359,48.5695,,0.31947454
34.5155275,45.135,2300,47.9583,,0.31148429
34.55491834,45.135,1848,42.9884,,0.250270856
34.59430919,45.135,1381,37.1618,,0.187026002
34.63370004,45.135,1028,32.0624,,0.139219935
34.67309089,45.135,714,26.7208,,0.096695558
34.71248174,45.135,587,24.2281,,0.079496208
34.75187258,45.135,492,22.1811,,0.066630553
34.79126343,45.135,424,20.5913,,0.057421452
34.83065428,45.135,466,21.587,,0.063109426
34.87004513,45.135,400,20,,0.054171181
34.90943598,45.135,436,20.8806,,0.059046587
34.94882682,45.135,378,19.4422,,0.051191766
34.98821767,45.135,398,19.9499,,0.053900325
35.02760852,45.135,415,20.3715,,0.0562026
35.06699937,45.135,371,19.2614,,0.05024377
35.10639022,45.135,411,20.2731,,0.055660888
35.14578106,45.135,424,20.5913,,0.057421452
35.18517191,45.135,389,19.7231,,0.052681473
35.22456276,45.135,397,19.9249,,0.053764897
35.26395361,45.135,400,20,,0.054171181
35.30334446,45.135,383,19.5704,,0.051868906
35.3427353,45.135,426,20.6398,,0.057692308
35.38212615,45.135,419,20.4695,,0.056744312
35.421517,45.135,416,20.3961,,0.056338028
35.46090785,45.135,425,20.6155,,0.05755688
35.5002987,45.135,484,22,,0.065547129
35.53968954,45.135,454,21.3073,,0.06148429
35.57908039,45.135,463,21.5174,,0.062703142
35.61847124,45.135,472,21.7256,,0.063921993
35.65786209,45.135,526,22.9347,,0.071235103
35.69725294,45.135,581,24.1039,,0.07868364
35.73664378,45.135,560,23.6643,,0.075839653
35.77603463,45.135,565,23.7697,,0.076516793
35.81542548,45.135,617,24.8395,,0.083559047
35.85481633,45.135,666,25.807,,0.090195016
35.89420718,45.135,630,25.0998,,0.08531961
35.93359802,45.135,563,23.7276,,0.076245937
35.97298887,45.135,549,23.4307,,0.074349946
36.01237972,45.135,587,24.2281,,0.079496208
36.05177057,45.135,517,22.7376,,0.070016251
36.09116142,45.135,514,22.6716,,0.069609967
36.13055226,45.135,507,22.5167,,0.068661972
36.16994311,45.135,512,22.6274,,0.069339112
36.20933396,45.135,505,22.4722,,0.068391116
36.24872481,45.135,509,22.561,,0.068932828
36.28811566,45.135,568,23.8328,,0.076923077
36.3275065,45.135,563,23.7276,,0.076245937
36.36689735,45.135,663,25.7488,,0.089788732
36.4062882,45.135,838,28.9482,,0.113488624
36.44567905,45.135,999,31.607,,0.135292524
36.4850699,45.135,1253,35.3977,,0.169691224
36.52446074,45.135,1661,40.7554,,0.224945829
36.56385159,45.135,2547,50.4678,,0.344934995
36.60324244,45.135,4224,64.9923,,0.572047671
36.64263329,45.135,6250,79.0569,,0.846424702
36.68202414,45.135,7384,85.9302,,1
36.72141498,45.135,7116,84.3564,,0.963705309
36.76080583,45.135,6243,79.0127,,0.845476706
36.80019668,45.135,4480,66.9328,,0.606717226
36.83958753,45.135,3027,55.0182,,0.409940412
36.87897838,45.135,1852,43.0349,,0.250812568
36.91836922,45.135,1239,35.1994,,0.167795233
36.95776007,45.135,915,30.249,,0.123916576
36.99715092,45.135,762,27.6043,,0.1031961
37.03654177,45.135,653,25.5539,,0.088434453
37.07593262,45.135,559,23.6432,,0.075704225
37.11532347,45.135,549,23.4307,,0.074349946
37.15471431,45.135,506,22.4944,,0.068526544
37.19410516,45.135,468,21.6333,,0.063380282
37.23349601,45.135,449,21.1896,,0.060807151
37.27288686,45.135,444,21.0713,,0.060130011
37.31227771,45.135,453,21.2838,,0.061348862
37.35166855,45.135,449,21.1896,,0.060807151
37.3910594,45.135,406,20.1494,,0.054983749
37.43045025,45.135,403,20.0749,,0.054577465
37.4698411,45.135,405,20.1246,,0.054848321
37.50923195,45.135,391,19.7737,,0.052952329
37.54862279,45.135,377,19.4165,,0.051056338
37.58801364,45.135,368,19.1833,,0.049837486
37.62740449,45.135,407,20.1742,,0.055119177
37.66679534,45.135,397,19.9249,,0.053764897
37.70618619,45.135,364,19.0788,,0.049295775
37.74557703,45.135,396,19.8997,,0.053629469
37.78496788,45.135,360,18.9737,,0.048754063
37.82435873,45.135,368,19.1833,,0.049837486
37.86374958,45.135,358,18.9209,,0.048483207
37.90314043,45.135,360,18.9737,,0.048754063
37.94253127,45.135,384,19.5959,,0.052004334
37.98192212,45.135,367,19.1572,,0.049702059
38.02131297,45.135,369,19.2094,,0.049972914
38.06070382,45.135,328,18.1108,,0.044420368
38.10009467,45.135,375,19.3649,,0.050785482
38.13948551,45.135,340,18.4391,,0.046045504
38.17887636,45.135,395,19.8746,,0.053494041
38.21826721,45.135,364,19.0788,,0.049295775
38.25765806,45.135,338,18.3848,,0.045774648
38.29704891,45.135,385,19.6214,,0.052139762
38.33643975,45.135,341,18.4662,,0.046180932
38.3758306,45.135,343,18.5203,,0.046451788
38.41522145,45.135,329,18.1384,,0.044555796
38.4546123,45.135,331,18.1934,,0.044826652
38.49400315,45.135,363,19.0526,,0.049160347
38.53339399,45.135,348,18.6548,,0.047128927
38.57278484,45.135,342,18.4932,,0.04631636
38.61217569,45.135,381,19.5192,,0.05159805
38.65156654,45.135,374,19.3391,,0.050650054
38.69095739,45.135,331,18.1934,,0.044826652
38.73034823,45.135,368,19.1833,,0.049837486
38.76973908,45.135,339,18.412,,0.045910076
38.80912993,45.135,355,18.8414,,0.048076923
38.84852078,45.135,351,18.735,,0.047535211
38.88791163,45.135,310,17.6068,,0.041982665
38.92730247,45.135,323,17.9722,,0.043743229
38.96669332,45.135,348,18.6548,,0.047128927
39.00608417,45.135,337,18.3576,,0.04563922
39.04547502,45.135,338,18.3848,,0.045774648
39.08486587,45.135,350,18.7083,,0.047399783
39.12425671,45.135,295,17.1756,,0.039951246
39.16364756,45.135,313,17.6918,,0.042388949
39.20303841,45.135,322,17.9444,,0.043607801
39.24242926,45.135,325,18.0278,,0.044014085
39.28182011,45.135,347,18.6279,,0.046993499
39.32121095,45.135,350,18.7083,,0.047399783
39.3606018,45.135,373,19.3132,,0.050514626
39.39999265,45.135,307,17.5214,,0.041576381
39.4393835,45.135,347,18.6279,,0.046993499
39.47877435,45.135,345,18.5742,,0.046722644
39.51816519,45.135,340,18.4391,,0.046045504
39.55755604,45.135,322,17.9444,,0.043607801
39.59694689,45.135,320,17.8885,,0.043336945
39.63633774,45.135,342,18.4932,,0.04631636
39.67572859,45.135,332,18.2209,,0.04496208
39.71511943,45.135,339,18.412,,0.045910076
39.75451028,45.135,350,18.7083,,0.047399783
39.79390113,45.135,334,18.2757,,0.045232936
39.83329198,45.135,334,18.2757,,0.045232936
39.87268283,45.135,382,19.5448,,0.051733478
39.91207368,45.135,395,19.8746,,0.053494041
39.95146452,45.135,370,19.2354,,0.050108342
39.99085537,45.135,428,20.6882,,0.057963164
40.03024622,45.135,398,19.9499,,0.053900325
40.06963707,45.135,365,19.105,,0.049431203
40.10902792,45.135,380,19.4936,,0.051462622
40.14841876,45.135,369,19.2094,,0.049972914
40.18780961,45.135,336,18.3303,,0.045503792
40.22720046,45.135,336,18.3303,,0.045503792
40.26659131,45.135,328,18.1108,,0.044420368
40.30598216,45.135,354,18.8149,,0.047941495
40.345373,45.135,337,18.3576,,0.04563922
40.38476385,45.135,316,17.7764,,0.042795233
40.4241547,45.135,323,17.9722,,0.043743229
40.46354555,45.135,332,18.2209,,0.04496208
40.5029364,45.135,324,18,,0.043878657
40.54232724,45.135,337,18.3576,,0.04563922
40.58171809,45.135,327,18.0831,,0.04428494
40.62110894,45.135,336,18.3303,,0.045503792
40.66049979,45.135,311,17.6352,,0.042118093
40.69989064,45.135,336,18.3303,,0.045503792
40.73928148,45.135,354,18.8149,,0.047941495
40.77867233,45.135,318,17.8326,,0.043066089
40.81806318,45.135,336,18.3303,,0.045503792
40.85745403,45.135,307,17.5214,,0.041576381
40.89684488,45.135,310,17.6068,,0.041982665
40.93623572,45.135,337,18.3576,,0.04563922
40.97562657,45.135,326,18.0555,,0.044149512
41.01501742,45.135,322,17.9444,,0.043607801
41.05440827,45.135,338,18.3848,,0.045774648
41.09379912,45.135,323,17.9722,,0.043743229
41.13318996,45.135,303,17.4069,,0.04103467
41.17258081,45.135,327,18.0831,,0.04428494
41.21197166,45.135,361,19,,0.048889491
41.25136251,45.135,292,17.088,,0.039544962
41.29075336,45.135,316,17.7764,,0.042795233
41.3301442,45.135,385,19.6214,,0.052139762
41.36953505,45.135,322,17.9444,,0.043607801
41.4089259,45.135,324,18,,0.043878657
41.44831675,45.135,342,18.4932,,0.04631636
41.4877076,45.135,322,17.9444,,0.043607801
41.52709844,45.135,341,18.4662,,0.046180932
41.56648929,45.135,347,18.6279,,0.046993499
41.60588014,45.135,321,17.9165,,0.043472373
41.64527099,45.135,314,17.72,,0.042524377
41.68466184,45.135,335,18.303,,0.045368364
41.72405268,45.135,309,17.5784,,0.041847237
41.76344353,45.135,335,18.303,,0.045368364
41.80283438,45.135,293,17.1172,,0.03968039
41.84222523,45.135,333,18.2483,,0.045097508
41.88161608,45.135,302,17.3781,,0.040899242
41.92100692,45.135,314,17.72,,0.042524377
41.96039777,45.135,326,18.0555,,0.044149512
41.99978862,45.135,328,18.1108,,0.044420368
42.03917947,45.135,373,19.3132,,0.050514626
42.07857032,45.135,336,18.3303,,0.045503792
42.11796116,45.135,323,17.9722,,0.043743229
42.15735201,45.135,295,17.1756,,0.039951246
42.19674286,45.135,342,18.4932,,0.04631636
42.23613371,45.135,331,18.1934,,0.044826652
42.27552456,45.135,347,18.6279,,0.046993499
42.3149154,45.135,356,18.868,,0.048212351
42.35430625,45.135,325,18.0278,,0.044014085
42.3936971,45.135,325,18.0278,,0.044014085
42.43308795,45.135,342,18.4932,,0.04631636
42.4724788,45.135,295,17.1756,,0.039951246
42.51186965,45.135,342,18.4932,,0.04631636
42.55126049,45.135,339,18.412,,0.045910076
42.59065134,45.135,316,17.7764,,0.042795233
42.63004219,45.135,339,18.412,,0.045910076
42.66943304,45.135,332,18.2209,,0.04496208
42.70882389,45.135,331,18.1934,,0.044826652
42.74821473,45.135,318,17.8326,,0.043066089
42.78760558,45.135,346,18.6011,,0.046858072
42.82699643,45.135,331,18.1934,,0.044826652
42.86638728,45.135,332,18.2209,,0.04496208
42.90577813,45.135,347,18.6279,,0.046993499
42.94516897,45.135,318,17.8326,,0.043066089
42.98455982,45.135,310,17.6068,,0.041982665
43.02395067,45.135,346,18.6011,,0.046858072
43.06334152,45.135,331,18.1934,,0.044826652
43.10273237,45.135,348,18.6548,,0.047128927
43.14212321,45.135,313,17.6918,,0.042388949
43.18151406,45.135,340,18.4391,,0.046045504
43.22090491,45.135,358,18.9209,,0.048483207
43.26029576,45.135,357,18.8944,,0.048347779
43.29968661,45.135,299,17.2916,,0.040492958
43.33907745,45.135,349,18.6815,,0.047264355
43.3784683,45.135,317,17.8045,,0.042930661
43.41785915,45.135,305,17.4642,,0.041305525
43.45725,45.135,308,17.5499,,0.041711809
43.49664085,45.135,292,17.088,,0.039544962
43.53603169,45.135,330,18.1659,,0.044691224
43.57542254,45.135,299,17.2916,,0.040492958
43.61481339,45.135,311,17.6352,,0.042118093
43.65420424,45.135,322,17.9444,,0.043607801
43.69359509,45.135,321,17.9165,,0.043472373
43.73298593,45.135,305,17.4642,,0.041305525
43.77237678,45.135,346,18.6011,,0.046858072
43.81176763,45.135,308,17.5499,,0.041711809
43.85115848,45.135,296,17.2047,,0.040086674
43.89054933,45.135,289,17,,0.039138678
43.92994017,45.135,329,18.1384,,0.044555796
43.96933102,45.135,312,17.6635,,0.042253521
44.00872187,45.135,310,17.6068,,0.041982665
44.04811272,45.135,343,18.5203,,0.046451788
44.08750357,45.135,317,17.8045,,0.042930661
44.12689441,45.135,301,17.3494,,0.040763814
44.16628526,45.135,314,17.72,,0.042524377
44.20567611,45.135,311,17.6352,,0.042118093
44.24506696,45.135,337,18.3576,,0.04563922
44.28445781,45.135,301,17.3494,,0.040763814
44.32384865,45.135,337,18.3576,,0.04563922
44.3632395,45.135,320,17.8885,,0.043336945
44.40263035,45.135,290,17.0294,,0.039274106
44.4420212,45.135,310,17.6068,,0.041982665
44.48141205,45.135,330,18.1659,,0.044691224
44.52080289,45.135,307,17.5214,,0.041576381
44.56019374,45.135,310,17.6068,,0.041982665
44.59958459,45.135,317,17.8045,,0.042930661
44.63897544,45.135,288,16.9706,,0.03900325
44.67836629,45.135,265,16.2788,,0.035888407
44.71775713,45.135,311,17.6352,,0.042118093
44.75714798,45.135,306,17.4929,,0.041440953
44.79653883,45.135,303,17.4069,,0.04103467
44.83592968,45.135,300,17.3205,,0.040628386
44.87532053,45.135,311,17.6352,,0.042118093
44.91471137,45.135,313,17.6918,,0.042388949
44.95410222,45.135,322,17.9444,,0.043607801
44.99349307,45.135,322,17.9444,,0.043607801
45.03288392,45.135,349,18.6815,,0.047264355
45.07227477,45.135,342,18.4932,,0.04631636
45.11166561,45.135,332,18.2209,,0.04496208
45.15105646,45.135,309,17.5784,,0.041847237
45.19044731,45.135,307,17.5214,,0.041576381
45.22983816,45.135,287,16.9411,,0.038867822
45.26922901,45.135,290,17.0294,,0.039274106
45.30861986,45.135,291,17.0587,,0.039409534
45.3480107,45.135,294,17.1464,,0.039815818
45.38740155,45.135,277,16.6433,,0.037513543
45.4267924,45.135,289,17,,0.039138678
45.46618325,45.135,314,17.72,,0.042524377
45.5055741,45.135,309,17.5784,,0.041847237
45.54496494,45.135,263,16.2173,,0.035617551
45.58435579,45.135,289,17,,0.039138678
45.62374664,45.135,332,18.2209,,0.04496208
45.66313749,45.135,294,17.1464,,0.039815818
45.70252834,45.135,296,17.2047,,0.040086674
45.74191918,45.135,275,16.5831,,0.037242687
45.78131003,45.135,332,18.2209,,0.04496208
45.82070088,45.135,335,18.303,,0.045368364
45.86009173,45.135,318,17.8326,,0.043066089
45.89948258,45.135,265,16.2788,,0.035888407
45.93887342,45.135,271,16.4621,,0.036700975
45.97826427,45.135,323,17.9722,,0.043743229
46.01765512,45.135,284,16.8523,,0.038461538
46.05704597,45.135,286,16.9115,,0.038732394
46.09643682,45.135,281,16.7631,,0.038055255
46.13582766,45.135,318,17.8326,,0.043066089
46.17521851,45.135,280,16.7332,,0.037919827
46.21460936,45.135,278,16.6733,,0.037648971
46.25400021,45.135,298,17.2627,,0.04035753
46.29339106,45.135,297,17.2337,,0.040222102
46.3327819,45.135,318,17.8326,,0.043066089
46.37217275,45.135,313,17.6918,,0.042388949
46.4115636,45.135,309,17.5784,,0.041847237
46.45095445,45.135,269,16.4012,,0.036430119
46.4903453,45.135,298,17.2627,,0.04035753
46.52973614,45.135,299,17.2916,,0.040492958
46.56912699,45.135,307,17.5214,,0.041576381
46.60851784,45.135,298,17.2627,,0.04035753
46.64790869,45.135,272,16.4924,,0.036836403
46.68729954,45.135,269,16.4012,,0.036430119
46.72669038,45.135,293,17.1172,,0.03968039
46.76608123,45.135,303,17.4069,,0.04103467
46.80547208,45.135,306,17.4929,,0.041440953
46.84486293,45.135,284,16.8523,,0.038461538
46.88425378,45.135,320,17.8885,,0.043336945
46.92364462,45.135,318,17.8326,,0.043066089
46.96303547,45.135,306,17.4929,,0.041440953
47.00242632,45.135,299,17.2916,,0.040492958
47.04181717,45.135,314,17.72,,0.042524377
47.08120802,45.135,311,17.6352,,0.042118093
47.12059886,45.135,303,17.4069,,0.04103467
47.15998971,45.135,295,17.1756,,0.039951246
47.19938056,45.135,344,18.5472,,0.046587216
47.23877141,45.135,339,18.412,,0.045910076
47.27816226,45.135,303,17.4069,,0.04103467
47.3175531,45.135,297,17.2337,,0.040222102
47.35694395,45.135,296,17.2047,,0.040086674
47.3963348,45.135,351,18.735,,0.047535211
47.43572565,45.135,324,18,,0.043878657
47.4751165,45.135,296,17.2047,,0.040086674
47.51450734,45.135,312,17.6635,,0.042253521
47.55389819,45.135,338,18.3848,,0.045774648
47.59328904,45.135,327,18.0831,,0.04428494
47.63267989,45.135,370,19.2354,,0.050108342
47.67207074,45.135,401,20.025,,0.054306609
47.71146158,45.135,445,21.095,,0.060265439
47.75085243,45.135,574,23.9583,,0.077735645
47.79024328,45.135,677,26.0192,,0.091684724
47.82963413,45.135,839,28.9655,,0.113624052
47.86902498,45.135,1025,32.0156,,0.138813651
47.90841582,45.135,1033,32.1403,,0.139897075
47.94780667,45.135,934,30.5614,,0.126489707
47.98719752,45.135,849,29.1376,,0.114978332
48.02658837,45.135,713,26.7021,,0.09656013
48.06597922,45.135,607,24.6374,,0.082204767
48.10537007,45.135,514,22.6716,,0.069609967
48.14476091,45.135,393,19.8242,,0.053223185
48.18415176,45.135,390,19.7484,,0.052816901
48.22354261,45.135,356,18.868,,0.048212351
48.26293346,45.135,352,18.7617,,0.047670639
48.30232431,45.135,306,17.4929,,0.041440953
48.34171515,45.135,333,18.2483,,0.045097508
48.381106,45.135,359,18.9473,,0.048618635
48.42049685,45.135,285,16.8819,,0.038596966
48.4598877,45.135,290,17.0294,,0.039274106
48.49927855,45.135,295,17.1756,,0.039951246
48.53866939,45.135,338,18.3848,,0.045774648
48.57806024,45.135,314,17.72,,0.042524377
48.61745109,45.135,301,17.3494,,0.040763814
48.65684194,45.135,304,17.4356,,0.041170098
48.69623279,45.135,293,17.1172,,0.03968039
48.73562363,45.135,288,16.9706,,0.03900325
48.77501448,45.135,305,17.4642,,0.041305525
48.81440533,45.135,317,17.8045,,0.042930661
48.85379618,45.135,269,16.4012,,0.036430119
48.89318703,45.135,283,16.8226,,0.038326111
48.93257787,45.135,302,17.3781,,0.040899242
48.97196872,45.135,305,17.4642,,0.041305525
49.01135957,45.135,282,16.7929,,0.038190683
49.05075042,45.135,275,16.5831,,0.037242687
49.09014127,45.135,297,17.2337,,0.040222102
49.12953211,45.135,277,16.6433,,0.037513543
49.16892296,45.135,291,17.0587,,0.039409534
49.20831381,45.135,290,17.0294,,0.039274106
49.24770466,45.135,309,17.5784,,0.041847237
49.28709551,45.135,310,17.6068,,0.041982665
49.32648635,45.135,283,16.8226,,0.038326111
49.3658772,45.135,312,17.6635,,0.042253521
49.40526805,45.135,286,16.9115,,0.038732394
49.4446589,45.135,280,16.7332,,0.037919827
49.48404975,45.135,294,17.1464,,0.039815818
49.52344059,45.135,278,16.6733,,0.037648971
49.56283144,45.135,296,17.2047,,0.040086674
49.60222229,45.135,252,15.8745,,0.034127844
49.64161314,45.135,255,15.9687,,0.034534128
49.68100399,45.135,291,17.0587,,0.039409534
49.72039483,45.135,298,17.2627,,0.04035753
49.75978568,45.135,274,16.5529,,0.037107259
49.79917653,45.135,252,15.8745,,0.034127844
49.83856738,45.135,287,16.9411,,0.038867822
49.87795823,45.135,270,16.4317,,0.036565547
49.91734907,45.135,282,16.7929,,0.038190683
49.95673992,45.135,311,17.6352,,0.042118093
49.99613077,45.135,275,16.5831,,0.037242687
50.03552162,45.135,284,16.8523,,0.038461538
50.07491247,45.135,303,17.4069,,0.04103467
50.11430331,45.135,275,16.5831,,0.037242687
50.15369416,45.135,311,17.6352,,0.042118093
50.19308501,45.135,261,16.1555,,0.035346696
50.23247586,45.135,264,16.2481,,0.035752979
50.27186671,45.135,262,16.1864,,0.035482124
50.31125755,45.135,301,17.3494,,0.040763814
50.3506484,45.135,288,16.9706,,0.03900325
50.39003925,45.135,325,18.0278,,0.044014085
50.4294301,45.135,283,16.8226,,0.038326111
50.46882095,45.135,264,16.2481,,0.035752979
50.50821179,45.135,251,15.843,,0.033992416
50.54760264,45.135,291,17.0587,,0.039409534
50.58699349,45.135,260,16.1245,,0.035211268
50.62638434,45.135,300,17.3205,,0.040628386
50.66577519,45.135,270,16.4317,,0.036565547
50.70516604,45.135,277,16.6433,,0.037513543
50.74455688,45.135,284,16.8523,,0.038461538
50.78394773,45.135,271,16.4621,,0.036700975
50.82333858,45.135,275,16.5831,,0.037242687
50.86272943,45.135,273,16.5227,,0.036971831
50.90212028,45.135,281,16.7631,,0.038055255
50.94151112,45.135,265,16.2788,,0.035888407
50.98090197,45.135,263,16.2173,,0.035617551
51.02029282,45.135,245,15.6525,,0.033179848
51.05968367,45.135,252,15.8745,,0.034127844
51.09907452,45.135,259,16.0935,,0.03507584
51.13846536,45.135,297,17.2337,,0.040222102
51.17785621,45.135,252,15.8745,,0.034127844
51.21724706,45.135,301,17.3494,,0.040763814
51.25663791,45.135,252,15.8745,,0.034127844
51.29602876,45.135,253,15.906,,0.034263272
51.3354196,45.135,276,16.6132,,0.037378115
51.37481045,45.135,273,16.5227,,0.036971831
51.4142013,45.135,247,15.7162,,0.033450704
51.45359215,45.135,285,16.8819,,0.038596966
51.492983,45.135,283,16.8226,,0.038326111
51.53237384,45.135,280,16.7332,,0.037919827
51.57176469,45.135,272,16.4924,,0.036836403
51.61115554,45.135,277,16.6433,,0.037513543
51.65054639,45.135,278,16.6733,,0.037648971
51.68993724,45.135,267,16.3401,,0.036159263
51.72932808,45.135,269,16.4012,,0.036430119
51.76871893,45.135,250,15.8114,,0.033856988
51.80810978,45.135,295,17.1756,,0.039951246
51.84750063,45.135,284,16.8523,,0.038461538
51.88689148,45.135,236,15.3623,,0.031960997
51.92628232,45.135,288,16.9706,,0.03900325
51.96567317,45.135,317,17.8045,,0.042930661
52.00506402,45.135,290,17.0294,,0.039274106
52.04445487,45.135,236,15.3623,,0.031960997
52.08384572,45.135,265,16.2788,,0.035888407
52.12323656,45.135,265,16.2788,,0.035888407
52.16262741,45.135,285,16.8819,,0.038596966
52.20201826,45.135,280,16.7332,,0.037919827
52.24140911,45.135,265,16.2788,,0.035888407
52.28079996,45.135,264,16.2481,,0.035752979
52.3201908,45.135,251,15.843,,0.033992416
52.35958165,45.135,294,17.1464,,0.039815818
52.3989725,45.135,277,16.6433,,0.037513543
52.43836335,45.135,257,16.0312,,0.034804984
52.4777542,45.135,262,16.1864,,0.035482124
52.51714504,45.135,300,17.3205,,0.040628386
52.55653589,45.135,258,16.0624,,0.034940412
52.59592674,45.135,293,17.1172,,0.03968039
52.63531759,45.135,269,16.4012,,0.036430119
52.67470844,45.135,246,15.6844,,0.033315276
52.71409928,45.135,258,16.0624,,0.034940412
52.75349013,45.135,289,17,,0.039138678
52.79288098,45.135,268,16.3707,,0.036294691
52.83227183,45.135,233,15.2643,,0.031554713
52.87166268,45.135,270,16.4317,,0.036565547
52.91105352,45.135,243,15.5885,,0.032908992
52.95044437,45.135,251,15.843,,0.033992416
52.98983522,45.135,293,17.1172,,0.03968039
53.02922607,45.135,275,16.5831,,0.037242687
53.06861692,45.135,270,16.4317,,0.036565547
53.10800776,45.135,262,16.1864,,0.035482124
53.14739861,45.135,257,16.0312,,0.034804984
53.18678946,45.135,259,16.0935,,0.03507584
53.22618031,45.135,259,16.0935,,0.03507584
53.26557116,45.135,260,16.1245,,0.035211268
53.304962,45.135,252,15.8745,,0.034127844
53.34435285,45.135,242,15.5563,,0.032773564
53.3837437,45.135,271,16.4621,,0.036700975
53.42313455,45.135,206,14.3527,,0.027898158
53.4625254,45.135,236,15.3623,,0.031960997
53.50191625,45.135,240,15.4919,,0.032502709
53.54130709,45.135,224,14.9666,,0.030335861
53.58069794,45.135,287,16.9411,,0.038867822
53.62008879,45.135,250,15.8114,,0.033856988
53.65947964,45.135,228,15.0997,,0.030877573
53.69887049,45.135,237,15.3948,,0.032096425
53.73826133,45.135,288,16.9706,,0.03900325
53.77765218,45.135,244,15.6205,,0.03304442
53.81704303,45.135,261,16.1555,,0.035346696
53.85643388,45.135,283,16.8226,,0.038326111
53.89582473,45.135,286,16.9115,,0.038732394
53.93521557,45.135,259,16.0935,,0.03507584
53.97460642,45.135,277,16.6433,,0.037513543
54.01399727,45.135,249,15.7797,,0.03372156
54.05338812,45.135,280,16.7332,,0.037919827
54.09277897,45.135,252,15.8745,,0.034127844
54.13216981,45.135,259,16.0935,,0.03507584
54.17156066,45.135,235,15.3297,,0.031825569
54.21095151,45.135,290,17.0294,,0.039274106
54.25034236,45.135,276,16.6132,,0.037378115
54.28973321,45.135,248,15.748,,0.033586132
54.32912405,45.135,242,15.5563,,0.032773564
54.3685149,45.135,284,16.8523,,0.038461538
54.40790575,45.135,302,17.3781,,0.040899242
54.4472966,45.135,276,16.6132,,0.037378115
54.48668745,45.135,280,16.7332,,0.037919827
54.52607829,45.135,303,17.4069,,0.04103467
54.56546914,45.135,329,18.1384,,0.044555796
54.60485999,45.135,344,18.5472,,0.046587216
54.64425084,45.135,352,18.7617,,0.047670639
54.68364169,45.135,354,18.8149,,0.047941495
54.72303253,45.135,358,18.9209,,0.048483207
54.76242338,45.135,370,19.2354,,0.050108342
54.80181423,45.135,353,18.7883,,0.047806067
54.84120508,45.135,318,17.8326,,0.043066089
54.88059593,45.135,300,17.3205,,0.040628386
54.91998677,45.135,335,18.303,,0.045368364
54.95937762,45.135,316,17.7764,,0.042795233
54.99876847,45.135,286,16.9115,,0.038732394
55.03815932,45.135,265,16.2788,,0.035888407
55.07755017,45.135,276,16.6132,,0.037378115
55.11694101,45.135,283,16.8226,,0.038326111
55.15633186,45.135,245,15.6525,,0.033179848
55.19572271,45.135,253,15.906,,0.034263272
55.23511356,45.135,248,15.748,,0.033586132
55.27450441,45.135,254,15.9374,,0.0343987
55.31389525,45.135,271,16.4621,,0.036700975
55.3532861,45.135,261,16.1555,,0.035346696
55.39267695,45.135,250,15.8114,,0.033856988
55.4320678,45.135,271,16.4621,,0.036700975
55.47145865,45.135,238,15.4272,,0.032231853
55.51084949,45.135,261,16.1555,,0.035346696
55.55024034,45.135,262,16.1864,,0.035482124
55.58963119,45.135,270,16.4317,,0.036565547
55.62902204,45.135,247,15.7162,,0.033450704
55.66841289,45.135,218,14.7648,,0.029523294
55.70780373,45.135,255,15.9687,,0.034534128
55.74719458,45.135,229,15.1327,,0.031013001
55.78658543,45.135,227,15.0665,,0.030742145
55.82597628,45.135,223,14.9332,,0.030200433
55.86536713,45.135,250,15.8114,,0.033856988
55.90475797,45.135,250,15.8114,,0.033856988
55.94414882,45.135,234,15.2971,,0.031690141
55.98353967,45.135,250,15.8114,,0.033856988
56.02293052,45.135,237,15.3948,,0.032096425
56.06232137,45.135,240,15.4919,,0.032502709
56.10171221,45.135,223,14.9332,,0.030200433
56.14110306,45.135,266,16.3095,,0.036023835
56.18049391,45.135,274,16.5529,,0.037107259
56.21988476,45.135,262,16.1864,,0.035482124
56.25927561,45.135,237,15.3948,,0.032096425
56.29866646,45.135,242,15.5563,,0.032773564
56.3380573,45.135,237,15.3948,,0.032096425
56.37744815,45.135,241,15.5242,,0.032638137
56.416839,45.135,233,15.2643,,0.031554713
56.45622985,45.135,262,16.1864,,0.035482124
56.4956207,45.135,246,15.6844,,0.033315276
56.53501154,45.135,255,15.9687,,0.034534128
56.57440239,45.135,245,15.6525,,0.033179848
56.61379324,45.135,229,15.1327,,0.031013001
56.65318409,45.135,245,15.6525,,0.033179848
56.69257494,45.135,252,15.8745,,0.034127844
56.73196578,45.135,274,16.5529,,0.037107259
56.77135663,45.135,249,15.7797,,0.03372156
56.81074748,45.135,266,16.3095,,0.036023835
56.85013833,45.135,221,14.8661,,0.029929577
56.88952918,45.135,225,15,,0.030471289
56.92892002,45.135,268,16.3707,,0.036294691
56.96831087,45.135,223,14.9332,,0.030200433
57.00770172,45.135,267,16.3401,,0.036159263
57.04709257,45.135,269,16.4012,,0.036430119
57.08648342,45.135,253,15.906,,0.034263272
57.12587426,45.135,288,16.9706,,0.03900325
57.16526511,45.135,309,17.5784,,0.041847237
57.20465596,45.135,315,17.7482,,0.042659805
57.24404681,45.135,349,18.6815,,0.047264355
57.28343766,45.135,394,19.8494,,0.053358613
57.3228285,45.135,494,22.2261,,0.066901408
57.36221935,45.135,687,26.2107,,0.093039003
57.4016102,45.135,965,31.0644,,0.130687974
57.44100105,45.135,1052,32.4345,,0.142470206
57.4803919,45.135,928,30.4631,,0.12567714
57.51978274,45.135,785,28.0179,,0.106310943
57.55917359,45.135,733,27.074,,0.099268689
57.59856444,45.135,726,26.9444,,0.098320693
57.63795529,45.135,579,24.0624,,0.078412784
57.67734614,45.135,481,21.9317,,0.065140845
57.71673698,45.135,348,18.6548,,0.047128927
57.75612783,45.135,342,18.4932,,0.04631636
57.79551868,45.135,301,17.3494,,0.040763814
57.83490953,45.135,287,16.9411,,0.038867822
57.87430038,45.135,274,16.5529,,0.037107259
57.91369122,45.135,265,16.2788,,0.035888407
57.95308207,45.135,283,16.8226,,0.038326111
57.99247292,45.135,297,17.2337,,0.040222102
58.03186377,45.135,265,16.2788,,0.035888407
58.07125462,45.135,234,15.2971,,0.031690141
58.11064546,45.135,260,16.1245,,0.035211268
58.15003631,45.135,256,16,,0.034669556
58.18942716,45.135,237,15.3948,,0.032096425
58.22881801,45.135,256,16,,0.034669556
58.26820886,45.135,231,15.1987,,0.031283857
58.3075997,45.135,238,15.4272,,0.032231853
58.34699055,45.135,228,15.0997,,0.030877573
58.3863814,45.135,206,14.3527,,0.027898158
58.42577225,45.135,228,15.0997,,0.030877573
58.4651631,45.135,276,16.6132,,0.037378115
58.50455394,45.135,225,15,,0.030471289
58.54394479,45.135,224,14.9666,,0.030335861
58.58333564,45.135,258,16.0624,,0.034940412
58.62272649,45.135,279,16.7033,,0.037784399
58.66211734,45.135,235,15.3297,,0.031825569
58.70150818,45.135,237,15.3948,,0.032096425
58.74089903,45.135,253,15.906,,0.034263272
58.78028988,45.135,274,16.5529,,0.037107259
58.81968073,45.135,218,14.7648,,0.029523294
58.85907158,45.135,209,14.4568,,0.028304442
58.89846243,45.135,241,15.5242,,0.032638137
58.93785327,45.135,240,15.4919,,0.032502709
58.97724412,45.135,232,15.2315,,0.031419285
59.01663497,45.135,230,15.1658,,0.031148429
59.05602582,45.135,232,15.2315,,0.031419285
59.09541667,45.135,249,15.7797,,0.03372156
59.13480751,45.135,252,15.8745,,0.034127844
59.17419836,45.135,215,14.6629,,0.02911701
59.21358921,45.135,222,14.8997,,0.030065005
59.25298006,45.135,220,14.8324,,0.02979415
59.29237091,45.135,246,15.6844,,0.033315276
59.33176175,45.135,221,14.8661,,0.029929577
59.3711526,45.135,251,15.843,,0.033992416
59.41054345,45.135,220,14.8324,,0.02979415
59.4499343,45.135,226,15.0333,,0.030606717
59.48932515,45.135,247,15.7162,,0.033450704
59.52871599,45.135,235,15.3297,,0.031825569
59.56810684,45.135,214,14.6287,,0.028981582
59.60749769,45.135,222,14.8997,,0.030065005
59.64688854,45.135,234,15.2971,,0.031690141
59.68627939,45.135,225,15,,0.030471289
59.72567023,45.135,235,15.3297,,0.031825569
59.76506108,45.135,223,14.9332,,0.030200433
59.80445193,45.135,233,15.2643,,0.031554713
59.84384278,45.135,253,15.906,,0.034263272
59.88323363,45.135,198,14.0712,,0.026814735
59.92262447,45.135,244,15.6205,,0.03304442
59.96201532,45.135,220,14.8324,,0.02979415
60.00140617,45.135,214,14.6287,,0.028981582
60.04079702,45.135,223,14.9332,,0.030200433
60.08018787,45.135,245,15.6525,,0.033179848
60.11957871,45.135,238,15.4272,,0.032231853
60.15896956,45.135,217,14.7309,,0.029387866
60.19836041,45.135,226,15.0333,,0.030606717
60.23775126,45.135,242,15.5563,,0.032773564
60.27714211,45.135,218,14.7648,,0.029523294
60.31653295,45.135,220,14.8324,,0.02979415
60.3559238,45.135,210,14.4914,,0.02843987
60.39531465,45.135,223,14.9332,,0.030200433
60.4347055,45.135,201,14.1774,,0.027221018
60.47409635,45.135,253,15.906,,0.034263272
60.51348719,45.135,234,15.2971,,0.031690141
60.55287804,45.135,209,14.4568,,0.028304442
60.59226889,45.135,223,14.9332,,0.030200433
60.63165974,45.135,224,14.9666,,0.030335861
60.67105059,45.135,238,15.4272,,0.032231853
60.71044143,45.135,243,15.5885,,0.032908992
60.74983228,45.135,253,15.906,,0.034263272
60.78922313,45.135,216,14.6969,,0.029252438
60.82861398,45.135,207,14.3875,,0.028033586
60.86800483,45.135,231,15.1987,,0.031283857
60.90739567,45.135,230,15.1658,,0.031148429
60.94678652,45.135,242,15.5563,,0.032773564
60.98617737,45.135,208,14.4222,,0.028169014
61.02556822,45.135,239,15.4596,,0.032367281
61.06495907,45.135,236,15.3623,,0.031960997
61.10434991,45.135,242,15.5563,,0.032773564
61.14374076,45.135,243,15.5885,,0.032908992
61.18313161,45.135,250,15.8114,,0.033856988
61.22252246,45.135,252,15.8745,,0.034127844
61.26191331,45.135,252,15.8745,,0.034127844
61.30130415,45.135,232,15.2315,,0.031419285
61.340695,45.135,189,13.7477,,0.025595883
61.38008585,45.135,232,15.2315,,0.031419285
61.4194767,45.135,230,15.1658,,0.031148429
61.45886755,45.135,235,15.3297,,0.031825569
61.49825839,45.135,238,15.4272,,0.032231853
61.53764924,45.135,222,14.8997,,0.030065005
61.57704009,45.135,259,16.0935,,0.03507584
61.61643094,45.135,255,15.9687,,0.034534128
61.65582179,45.135,210,14.4914,,0.02843987
61.69521264,45.135,241,15.5242,,0.032638137
61.73460348,45.135,253,15.906,,0.034263272
61.77399433,45.135,233,15.2643,,0.031554713
61.81338518,45.135,235,15.3297,,0.031825569
61.85277603,45.135,225,15,,0.030471289
61.89216688,45.135,228,15.0997,,0.030877573
61.93155772,45.135,218,14.7648,,0.029523294
61.97094857,45.135,249,15.7797,,0.03372156
62.01033942,45.135,240,15.4919,,0.032502709
62.04973027,45.135,250,15.8114,,0.033856988
62.08912112,45.135,222,14.8997,,0.030065005
62.12851196,45.135,241,15.5242,,0.032638137
62.16790281,45.135,209,14.4568,,0.028304442
62.20729366,45.135,233,15.2643,,0.031554713
62.24668451,45.135,219,14.7986,,0.029658722
62.28607536,45.135,236,15.3623,,0.031960997
62.3254662,45.135,245,15.6525,,0.033179848
62.36485705,45.135,266,16.3095,,0.036023835
62.4042479,45.135,239,15.4596,,0.032367281
62.44363875,45.135,297,17.2337,,0.040222102
62.4830296,45.135,273,16.5227,,0.036971831
62.52242044,45.135,248,15.748,,0.033586132
62.56181129,45.135,240,15.4919,,0.032502709
62.60120214,45.135,245,15.6525,,0.033179848
62.64059299,45.135,253,15.906,,0.034263272
62.67998384,45.135,259,16.0935,,0.03507584
62.71937468,45.135,261,16.1555,,0.035346696
62.75876553,45.135,294,17.1464,,0.039815818
62.79815638,45.135,276,16.6132,,0.037378115
62.83754723,45.135,284,16.8523,,0.038461538
62.87693808,45.135,315,17.7482,,0.042659805
62.91632892,45.135,321,17.9165,,0.043472373
62.95571977,45.135,371,19.2614,,0.05024377
62.99511062,45.135,449,21.1896,,0.060807151
63.03450147,45.135,566,23.7908,,0.076652221
63.07389232,45.135,719,26.8142,,0.097372698
63.11328316,45.135,791,28.1247,,0.10712351
63.15267401,45.135,772,27.7849,,0.104550379
63.19206486,45.135,781,27.9464,,0.105769231
63.23145571,45.135,669,25.865,,0.0906013
63.27084656,45.135,674,25.9615,,0.09127844
63.3102374,45.135,582,24.1247,,0.078819068
63.34962825,45.135,537,23.1733,,0.07272481
63.3890191,45.135,508,22.5389,,0.0687974
63.42840995,45.135,347,18.6279,,0.046993499
63.4678008,45.135,361,19,,0.048889491
63.50719164,45.135,316,17.7764,,0.042795233
63.54658249,45.135,300,17.3205,,0.040628386
63.58597334,45.135,257,16.0312,,0.034804984
63.62536419,45.135,231,15.1987,,0.031283857
63.66475504,45.135,219,14.7986,,0.029658722
63.70414588,45.135,235,15.3297,,0.031825569
63.74353673,45.135,226,15.0333,,0.030606717
63.78292758,45.135,238,15.4272,,0.032231853
63.82231843,45.135,215,14.6629,,0.02911701
63.86170928,45.135,247,15.7162,,0.033450704
63.90110012,45.135,208,14.4222,,0.028169014
63.94049097,45.135,239,15.4596,,0.032367281
63.97988182,45.135,212,14.5602,,0.028710726
64.01927267,45.135,209,14.4568,,0.028304442
64.05866352,45.135,222,14.8997,,0.030065005
64.09805436,45.135,211,14.5258,,0.028575298
64.13744521,45.135,192,13.8564,,0.026002167
64.17683606,45.135,224,14.9666,,0.030335861
64.21622691,45.135,199,14.1067,,0.026950163
64.25561776,45.135,229,15.1327,,0.031013001
64.2950086,45.135,228,15.0997,,0.030877573
64.33439945,45.135,207,14.3875,,0.028033586
64.3737903,45.135,209,14.4568,,0.028304442
64.41318115,45.135,189,13.7477,,0.025595883
64.452572,45.135,221,14.8661,,0.029929577
64.49196285,45.135,189,13.7477,,0.025595883
64.53135369,45.135,219,14.7986,,0.029658722
64.57074454,45.135,240,15.4919,,0.032502709
64.61013539,45.135,247,15.7162,,0.033450704
64.64952624,45.135,215,14.6629,,0.02911701
64.68891709,45.135,192,13.8564,,0.026002167
64.72830793,45.135,210,14.4914,,0.02843987
64.76769878,45.135,185,13.6015,,0.025054171
64.80708963,45.135,195,13.9642,,0.026408451
64.84648048,45.135,191,13.8203,,0.025866739
64.88587133,45.135,214,14.6287,,0.028981582
64.92526217,45.135,181,13.4536,,0.024512459
64.96465302,45.135,206,14.3527,,0.027898158
65.00404387,45.135,209,14.4568,,0.028304442
65.04343472,45.135,232,15.2315,,0.031419285
65.08282557,45.135,199,14.1067,,0.026950163
65.12221641,45.135,225,15,,0.030471289
65.16160726,45.135,222,14.8997,,0.030065005
65.20099811,45.135,221,14.8661,,0.029929577
65.24038896,45.135,213,14.5945,,0.028846154
65.27977981,45.135,232,15.2315,,0.031419285
65.31917065,45.135,209,14.4568,,0.028304442
65.3585615,45.135,211,14.5258,,0.028575298
65.39795235,45.135,204,14.2829,,0.027627302
65.4373432,45.135,231,15.1987,,0.031283857
65.47673405,45.135,226,15.0333,,0.030606717
65.51612489,45.135,202,14.2127,,0.027356446
65.55551574,45.135,214,14.6287,,0.028981582
65.59490659,45.135,194,13.9284,,0.026273023
65.63429744,45.135,183,13.5277,,0.024783315
65.67368829,45.135,218,14.7648,,0.029523294
65.71307913,45.135,230,15.1658,,0.031148429
65.75246998,45.135,209,14.4568,,0.028304442
65.79186083,45.135,219,14.7986,,0.029658722
65.83125168,45.135,238,15.4272,,0.032231853
65.87064253,45.135,214,14.6287,,0.028981582
65.91003337,45.135,196,14,,0.026543879
65.94942422,45.135,224,14.9666,,0.030335861
65.98881507,45.135,195,13.9642,,0.026408451
66.02820592,45.135,211,14.5258,,0.028575298
66.06759677,45.135,213,14.5945,,0.028846154
66.10698761,45.135,213,14.5945,,0.028846154
66.14637846,45.135,213,14.5945,,0.028846154
66.18576931,45.135,201,14.1774,,0.027221018
66.22516016,45.135,192,13.8564,,0.026002167
66.26455101,45.135,209,14.4568,,0.028304442
66.30394185,45.135,223,14.9332,,0.030200433
66.3433327,45.135,207,14.3875,,0.028033586
66.38272355,45.135,211,14.5258,,0.028575298
66.4221144,45.135,224,14.9666,,0.030335861
66.46150525,45.135,203,14.2478,,0.027491874
66.50089609,45.135,172,13.1149,,0.023293608
66.54028694,45.135,197,14.0357,,0.026679307
66.57967779,45.135,184,13.5647,,0.024918743
66.61906864,45.135,227,15.0665,,0.030742145
66.65845949,45.135,211,14.5258,,0.028575298
66.69785033,45.135,201,14.1774,,0.027221018
66.73724118,45.135,183,13.5277,,0.024783315
66.77663203,45.135,249,15.7797,,0.03372156
66.81602288,45.135,219,14.7986,,0.029658722
66.85541373,45.135,205,14.3178,,0.02776273
66.89480457,45.135,211,14.5258,,0.028575298
66.93419542,45.135,213,14.5945,,0.028846154
66.97358627,45.135,219,14.7986,,0.029658722
67.01297712,45.135,199,14.1067,,0.026950163
67.05236797,45.135,191,13.8203,,0.025866739
67.09175882,45.135,184,13.5647,,0.024918743
67.13114966,45.135,190,13.784,,0.025731311
67.17054051,45.135,211,14.5258,,0.028575298
67.20993136,45.135,220,14.8324,,0.02979415
67.24932221,45.135,225,15,,0.030471289
67.28871306,45.135,261,16.1555,,0.035346696
67.3281039,45.135,288,16.9706,,0.03900325
67.36749475,45.135,257,16.0312,,0.034804984
67.4068856,45.135,287,16.9411,,0.038867822
67.44627645,45.135,279,16.7033,,0.037784399
67.4856673,45.135,271,16.4621,,0.036700975
67.52505814,45.135,266,16.3095,,0.036023835
67.56444899,45.135,251,15.843,,0.033992416
67.60383984,45.135,204,14.2829,,0.027627302
67.64323069,45.135,269,16.4012,,0.036430119
67.68262154,45.135,206,14.3527,,0.027898158
67.72201238,45.135,249,15.7797,,0.03372156
67.76140323,45.135,234,15.2971,,0.031690141
67.80079408,45.135,230,15.1658,,0.031148429
67.84018493,45.135,189,13.7477,,0.025595883
67.87957578,45.135,184,13.5647,,0.024918743
67.91896662,45.135,219,14.7986,,0.029658722
67.95835747,45.135,199,14.1067,,0.026950163
67.99774832,45.135,220,14.8324,,0.02979415
68.03713917,45.135,223,14.9332,,0.030200433
68.07653002,45.135,218,14.7648,,0.029523294
68.11592086,45.135,194,13.9284,,0.026273023
68.15531171,45.135,205,14.3178,,0.02776273
68.19470256,45.135,185,13.6015,,0.025054171
68.23409341,45.135,228,15.0997,,0.030877573
68.27348426,45.135,261,16.1555,,0.035346696
68.3128751,45.135,206,14.3527,,0.027898158
68.35226595,45.135,246,15.6844,,0.033315276
68.3916568,45.135,226,15.0333,,0.030606717
68.43104765,45.135,295,17.1756,,0.039951246
68.4704385,45.135,291,17.0587,,0.039409534
68.50982934,45.135,317,17.8045,,0.042930661
68.54922019,45.135,395,19.8746,,0.053494041
68.58861104,45.135,460,21.4476,,0.062296858
68.62800189,45.135,595,24.3926,,0.080579632
68.66739274,45.135,771,27.7669,,0.104414951
68.70678358,45.135,810,28.4605,,0.109696641
68.74617443,45.135,693,26.3249,,0.093851571
68.78556528,45.135,631,25.1197,,0.085455038
68.82495613,45.135,562,23.7065,,0.076110509
68.86434698,45.135,601,24.5153,,0.081392199
68.90373782,45.135,531,23.0434,,0.071912243
68.94312867,45.135,450,21.2132,,0.060942579
68.98251952,45.135,373,19.3132,,0.050514626
69.02191037,45.135,321,17.9165,,0.043472373
69.06130122,45.135,263,16.2173,,0.035617551
69.10069206,45.135,280,16.7332,,0.037919827
69.14008291,45.135,287,16.9411,,0.038867822
69.17947376,45.135,237,15.3948,,0.032096425
69.21886461,45.135,227,15.0665,,0.030742145
69.25825546,45.135,228,15.0997,,0.030877573
69.2976463,45.135,217,14.7309,,0.029387866
69.33703715,45.135,217,14.7309,,0.029387866
69.376428,45.135,258,16.0624,,0.034940412
69.41581885,45.135,214,14.6287,,0.028981582
69.4552097,45.135,211,14.5258,,0.028575298
69.49460054,45.135,255,15.9687,,0.034534128
69.53399139,45.135,210,14.4914,,0.02843987
69.57338224,45.135,201,14.1774,,0.027221018
69.61277309,45.135,250,15.8114,,0.033856988
69.65216394,45.135,220,14.8324,,0.02979415
69.69155478,45.135,238,15.4272,,0.032231853
69.73094563,45.135,229,15.1327,,0.031013001
69.77033648,45.135,258,16.0624,,0.034940412
69.80972733,45.135,224,14.9666,,0.030335861
69.84911818,45.135,283,16.8226,,0.038326111
69.88850903,45.135,296,17.2047,,0.040086674
69.92789987,45.135,317,17.8045,,0.042930661
69.96729072,45.135,398,19.9499,,0.053900325
70.00668157,45.135,449,21.1896,,0.060807151
70.04607242,45.135,604,24.5764,,0.081798483
70.08546327,45.135,582,24.1247,,0.078819068
70.12485411,45.135,527,22.9565,,0.071370531
70.16424496,45.135,441,21,,0.059723727
70.20363581,45.135,397,19.9249,,0.053764897
70.24302666,45.135,462,21.4942,,0.062567714
70.28241751,45.135,425,20.6155,,0.05755688
70.32180835,45.135,377,19.4165,,0.051056338
70.3611992,45.135,316,17.7764,,0.042795233
70.40059005,45.135,300,17.3205,,0.040628386
70.4399809,45.135,247,15.7162,,0.033450704
70.47937175,45.135,217,14.7309,,0.029387866
70.51876259,45.135,211,14.5258,,0.028575298
70.55815344,45.135,223,14.9332,,0.030200433
70.59754429,45.135,202,14.2127,,0.027356446
70.63693514,45.135,194,13.9284,,0.026273023
70.67632599,45.135,185,13.6015,,0.025054171
70.71571683,45.135,212,14.5602,,0.028710726
70.75510768,45.135,187,13.6748,,0.025325027
70.79449853,45.135,182,13.4907,,0.024647887
70.83388938,45.135,198,14.0712,,0.026814735
70.87328023,45.135,232,15.2315,,0.031419285
70.91267107,45.135,192,13.8564,,0.026002167
70.95206192,45.135,167,12.9228,,0.022616468
70.99145277,45.135,214,14.6287,,0.028981582
71.03084362,45.135,191,13.8203,,0.025866739
71.07023447,45.135,191,13.8203,,0.025866739
71.10962531,45.135,188,13.7113,,0.025460455
71.14901616,45.135,191,13.8203,,0.025866739
71.18840701,45.135,187,13.6748,,0.025325027
71.22779786,45.135,194,13.9284,,0.026273023
71.26718871,45.135,196,14,,0.026543879
71.30657955,45.135,193,13.8924,,0.026137595
71.3459704,45.135,184,13.5647,,0.024918743
71.38536125,45.135,192,13.8564,,0.026002167
71.4247521,45.135,205,14.3178,,0.02776273
71.46414295,45.135,176,13.2665,,0.02383532
71.50353379,45.135,149,12.2066,,0.020178765
71.54292464,45.135,198,14.0712,,0.026814735
71.58231549,45.135,208,14.4222,,0.028169014
71.62170634,45.135,214,14.6287,,0.028981582
71.66109719,45.135,158,12.5698,,0.021397616
71.70048803,45.135,186,13.6382,,0.025189599
71.73987888,45.135,178,13.3417,,0.024106176
71.77926973,45.135,189,13.7477,,0.025595883
71.81866058,45.135,196,14,,0.026543879
71.85805143,45.135,196,14,,0.026543879
71.89744227,45.135,190,13.784,,0.025731311
71.93683312,45.135,175,13.2288,,0.023699892
71.97622397,45.135,187,13.6748,,0.025325027
72.01561482,45.135,218,14.7648,,0.029523294
72.05500567,45.135,182,13.4907,,0.024647887
72.09439651,45.135,172,13.1149,,0.023293608
72.13378736,45.135,180,13.4164,,0.024377031
72.17317821,45.135,185,13.6015,,0.025054171
72.21256906,45.135,196,14,,0.026543879
72.25195991,45.135,189,13.7477,,0.025595883
72.29135075,45.135,187,13.6748,,0.025325027
72.3307416,45.135,169,13,,0.022887324
72.37013245,45.135,188,13.7113,,0.025460455
72.4095233,45.135,201,14.1774,,0.027221018
72.44891415,45.135,199,14.1067,,0.026950163
72.488305,45.135,234,15.2971,,0.031690141
72.52769584,45.135,230,15.1658,,0.031148429
72.56708669,45.135,258,16.0624,,0.034940412
72.60647754,45.135,260,16.1245,,0.035211268
72.64586839,45.135,234,15.2971,,0.031690141
72.68525924,45.135,227,15.0665,,0.030742145
72.72465008,45.135,220,14.8324,,0.02979415
72.76404093,45.135,196,14,,0.026543879
72.80343178,45.135,218,14.7648,,0.029523294
72.84282263,45.135,209,14.4568,,0.028304442
72.88221348,45.135,227,15.0665,,0.030742145
72.92160432,45.135,184,13.5647,,0.024918743
72.96099517,45.135,204,14.2829,,0.027627302
73.00038602,45.135,199,14.1067,,0.026950163
73.03977687,45.135,179,13.3791,,0.024241603
73.07916772,45.135,197,14.0357,,0.026679307
73.11855856,45.135,167,12.9228,,0.022616468
73.15794941,45.135,154,12.4097,,0.020855905
73.19734026,45.135,200,14.1421,,0.02708559
73.23673111,45.135,168,12.9615,,0.022751896
73.27612196,45.135,187,13.6748,,0.025325027
73.3155128,45.135,189,13.7477,,0.025595883
73.35490365,45.135,174,13.1909,,0.023564464
73.3942945,45.135,164,12.8062,,0.022210184
73.43368535,45.135,161,12.6886,,0.0218039
73.4730762,45.135,172,13.1149,,0.023293608
73.51246704,45.135,175,13.2288,,0.023699892
73.55185789,45.135,163,12.7671,,0.022074756
73.59124874,45.135,216,14.6969,,0.029252438
73.63063959,45.135,211,14.5258,,0.028575298
73.67003044,45.135,155,12.4499,,0.020991333
73.70942128,45.135,184,13.5647,,0.024918743
73.74881213,45.135,151,12.2882,,0.020449621
73.78820298,45.135,188,13.7113,,0.025460455
73.82759383,45.135,166,12.8841,,0.02248104
73.86698468,45.135,194,13.9284,,0.026273023
73.90637552,45.135,166,12.8841,,0.02248104
73.94576637,45.135,151,12.2882,,0.020449621
73.98515722,45.135,178,13.3417,,0.024106176
74.02454807,45.135,160,12.6491,,0.021668472
74.06393892,45.135,183,13.5277,,0.024783315
74.10332976,45.135,199,14.1067,,0.026950163
74.14272061,45.135,179,13.3791,,0.024241603
74.18211146,45.135,186,13.6382,,0.025189599
74.22150231,45.135,160,12.6491,,0.021668472
74.26089316,45.135,159,12.6095,,0.021533044
74.300284,45.135,176,13.2665,,0.02383532
74.33967485,45.135,178,13.3417,,0.024106176
74.3790657,45.135,208,14.4222,,0.028169014
74.41845655,45.135,193,13.8924,,0.026137595
74.4578474,45.135,199,14.1067,,0.026950163
74.49723824,45.135,171,13.0767,,0.02315818
74.53662909,45.135,193,13.8924,,0.026137595
74.57601994,45.135,188,13.7113,,0.025460455
74.61541079,45.135,186,13.6382,,0.025189599
74.65480164,45.135,159,12.6095,,0.021533044
74.69419248,45.135,190,13.784,,0.025731311
74.73358333,45.135,173,13.1529,,0.023429036
74.77297418,45.135,179,13.3791,,0.024241603
74.81236503,45.135,164,12.8062,,0.022210184
74.85175588,45.135,168,12.9615,,0.022751896
74.89114672,45.135,177,13.3041,,0.023970748
74.93053757,45.135,169,13,,0.022887324
74.96992842,45.135,156,12.49,,0.021126761
75.00931927,45.135,182,13.4907,,0.024647887
75.04871012,45.135,189,13.7477,,0.025595883
75.08810096,45.135,169,13,,0.022887324
75.12749181,45.135,180,13.4164,,0.024377031
75.16688266,45.135,173,13.1529,,0.023429036
75.20627351,45.135,172,13.1149,,0.023293608
75.24566436,45.135,177,13.3041,,0.023970748
75.28505521,45.135,154,12.4097,,0.020855905
75.32444605,45.135,189,13.7477,,0.025595883
75.3638369,45.135,184,13.5647,,0.024918743
75.40322775,45.135,178,13.3417,,0.024106176
75.4426186,45.135,172,13.1149,,0.023293608
75.48200945,45.135,178,13.3417,,0.024106176
75.52140029,45.135,168,12.9615,,0.022751896
75.56079114,45.135,177,13.3041,,0.023970748
75.60018199,45.135,197,14.0357,,0.026679307
75.63957284,45.135,185,13.6015,,0.025054171
75.67896369,45.135,197,14.0357,,0.026679307
75.71835453,45.135,156,12.49,,0.021126761
75.75774538,45.135,171,13.0767,,0.02315818
75.79713623,45.135,197,14.0357,,0.026679307
75.83652708,45.135,212,14.5602,,0.028710726
75.87591793,45.135,178,13.3417,,0.024106176
75.91530877,45.135,189,13.7477,,0.025595883
75.95469962,45.135,168,12.9615,,0.022751896
75.99409047,45.135,197,14.0357,,0.026679307
76.03348132,45.135,157,12.53,,0.021262189
76.07287217,45.135,186,13.6382,,0.025189599
76.11226301,45.135,174,13.1909,,0.023564464
76.15165386,45.135,189,13.7477,,0.025595883
76.19104471,45.135,181,13.4536,,0.024512459
76.23043556,45.135,178,13.3417,,0.024106176
76.26982641,45.135,179,13.3791,,0.024241603
76.30921725,45.135,160,12.6491,,0.021668472
76.3486081,45.135,162,12.7279,,0.021939328
76.38799895,45.135,154,12.4097,,0.020855905
76.4273898,45.135,197,14.0357,,0.026679307
76.46678065,45.135,194,13.9284,,0.026273023
76.50617149,45.135,160,12.6491,,0.021668472
76.54556234,45.135,166,12.8841,,0.02248104
76.58495319,45.135,149,12.2066,,0.020178765
76.62434404,45.135,158,12.5698,,0.021397616
76.66373489,45.135,206,14.3527,,0.027898158
76.70312573,45.135,163,12.7671,,0.022074756
76.74251658,45.135,172,13.1149,,0.023293608
76.78190743,45.135,186,13.6382,,0.025189599
76.82129828,45.135,173,13.1529,,0.023429036
76.86068913,45.135,170,13.0384,,0.023022752
76.90007997,45.135,159,12.6095,,0.021533044
76.93947082,45.135,171,13.0767,,0.02315818
76.97886167,45.135,173,13.1529,,0.023429036
77.01825252,45.135,175,13.2288,,0.023699892
77.05764337,45.135,149,12.2066,,0.020178765
77.09703421,45.135,158,12.5698,,0.021397616
77.13642506,45.135,145,12.0416,,0.019637053
77.17581591,45.135,174,13.1909,,0.023564464
77.21520676,45.135,172,13.1149,,0.023293608
77.25459761,45.135,174,13.1909,,0.023564464
77.29398845,45.135,173,13.1529,,0.023429036
77.3333793,45.135,172,13.1149,,0.023293608
77.37277015,45.135,137,11.7047,,0.018553629
77.412161,45.135,179,13.3791,,0.024241603
77.45155185,45.135,179,13.3791,,0.024241603
77.49094269,45.135,187,13.6748,,0.025325027
77.53033354,45.135,171,13.0767,,0.02315818
77.56972439,45.135,185,13.6015,,0.025054171
77.60911524,45.135,184,13.5647,,0.024918743
77.64850609,45.135,147,12.1244,,0.019907909
77.68789693,45.135,173,13.1529,,0.023429036
77.72728778,45.135,196,14,,0.026543879
77.76667863,45.135,191,13.8203,,0.025866739
77.80606948,45.135,209,14.4568,,0.028304442
77.84546033,45.135,268,16.3707,,0.036294691
77.88485117,45.135,238,15.4272,,0.032231853
77.92424202,45.135,255,15.9687,,0.034534128
77.96363287,45.135,231,15.1987,,0.031283857
78.00302372,45.135,207,14.3875,,0.028033586
78.04241457,45.135,216,14.6969,,0.029252438
78.08180542,45.135,236,15.3623,,0.031960997
78.12119626,45.135,228,15.0997,,0.030877573
78.16058711,45.135,183,13.5277,,0.024783315
78.19997796,45.135,198,14.0712,,0.026814735
78.23936881,45.135,191,13.8203,,0.025866739
78.27875966,45.135,186,13.6382,,0.025189599
78.3181505,45.135,189,13.7477,,0.025595883
78.35754135,45.135,162,12.7279,,0.021939328
78.3969322,45.135,196,14,,0.026543879
78.43632305,45.135,178,13.3417,,0.024106176
78.4757139,45.135,183,13.5277,,0.024783315
78.51510474,45.135,167,12.9228,,0.022616468
78.55449559,45.135,153,12.3693,,0.020720477
78.59388644,45.135,167,12.9228,,0.022616468
78.63327729,45.135,172,13.1149,,0.023293608
78.67266814,45.135,164,12.8062,,0.022210184
78.71205898,45.135,163,12.7671,,0.022074756
78.75144983,45.135,168,12.9615,,0.022751896
78.79084068,45.135,178,13.3417,,0.024106176
78.83023153,45.135,177,13.3041,,0.023970748
78.86962238,45.135,167,12.9228,,0.022616468
78.90901322,45.135,151,12.2882,,0.020449621
78.94840407,45.135,169,13,,0.022887324
78.98779492,45.135,153,12.3693,,0.020720477
79.02718577,45.135,169,13,,0.022887324
79.06657662,45.135,185,13.6015,,0.025054171
79.10596746,45.135,175,13.2288,,0.023699892
79.14535831,45.135,172,13.1149,,0.023293608
79.18474916,45.135,138,11.7473,,0.018689057
79.22414001,45.135,167,12.9228,,0.022616468
79.26353086,45.135,154,12.4097,,0.020855905
79.3029217,45.135,148,12.1655,,0.020043337
79.34231255,45.135,172,13.1149,,0.023293608
79.3817034,45.135,152,12.3288,,0.020585049
79.42109425,45.135,184,13.5647,,0.024918743
79.4604851,45.135,146,12.083,,0.019772481
79.49987594,45.135,157,12.53,,0.021262189
79.53926679,45.135,166,12.8841,,0.02248104
79.57865764,45.135,182,13.4907,,0.024647887
79.61804849,45.135,163,12.7671,,0.022074756
79.65743934,45.135,184,13.5647,,0.024918743
79.69683018,45.135,136,11.6619,,0.018418202
79.73622103,45.135,154,12.4097,,0.020855905
79.77561188,45.135,179,13.3791,,0.024241603
79.81500273,45.135,168,12.9615,,0.022751896
79.85439358,45.135,182,13.4907,,0.024647887
79.89378442,45.135,172,13.1149,,0.023293608
79.93317527,45.135,147,12.1244,,0.019907909
79.97256612,45.135,175,13.2288,,0.023699892
